# Created by:        SpecsLab Prodigy, Version 4.74.2-r95700 
#
# XY-Serializer Export Settings:
#   Comment Prefix:           #
#   Output Meta Data:         yes
#   Energy Axis:              Kinetic Energy
#   Count Rate:               Counts per Second
#   Separate Scan Data:       no
#   Separate Channel Data:    no
#   External Channel Data:    yes
#   Transmission Function:    no
#   Error Bar:                no
#   Operation Results:        yes
#   Time Zone Format:         UTC
#
# Group:             z546p5_x4p5
#
# Region:            overview
# Spectrum ID:       3
# Acquisition Date:  06/23/22 11:59:08 UTC
# Analysis Method:   XPS
# Analyzer:          Analyzer
# Analyzer Lens:     MediumArea:1.5kV
# Analyzer Slit:     4:3x20\B:open
# Scan Mode:         FixedAnalyzerTransmission
# Curves/Scan:       1
# Values/Curve:      1391
# Dwell Time:        0.1
# Excitation Energy: 1486.71
# Kinetic Energy:    100
# Pass Energy:       50
# Bias Voltage:      -1
# Detector Voltage:  1800
# Eff. Workfunction: 4.498
# Source:            XR 50 MF (UXC1000)
# Comment:           x=3.5, y=13 z=552 (center), th=40, slit 4, Iris 40, RT=299K
# OrdinateRange:     [-7.000000, 7.000000]
#
# Cycle: 0
# Number of Scans: 1
#
# Cycle: 0, Curve: 0
# Acquisition Date: 06/23/22 11:59:08 UTC
#
# ColumnLabels: energy counts/s
#
100  7.5662851
101  7.7556299
102  7.8701666
103  7.9268067
104  7.9436619
105  7.6494705
106  6.9542829
107  7.092698
108  8.2741413
109  7.1231086
110  6.9050961
111  6.8254983
112  7.7632909
113  7.0966978
114  6.6745222
115  6.3280179
116  8.4522092
117  7.5742996
118  7.3617251
119  6.580007
120  7.4436363
121  6.7157599
122  6.6183841
123  7.2893664
124  7.3457844
125  7.3655157
126  7.4457039
127  6.946463
128  7.2092183
129  6.8133454
130  7.4690248
131  7.1010513
132  8.1849668
133  7.6632226
134  6.7797943
135  7.3712889
136  7.6598463
137  7.8050207
138  8.1486413
139  7.6878234
140  7.9607117
141  7.7655438
142  8.1861972
143  7.4308746
144  8.4024578
145  8.5402567
146  8.6310724
147  7.8580205
148  8.5811492
149  8.5778875
150  9.5216016
151  8.8929493
152  8.2532151
153  8.7979299
154  8.5734445
155  9.7538037
156  9.2942943
157  10.759543
158  10.655375
159  9.1288237
160  9.1196975
161  9.4519178
162  10.489586
163  9.5542192
164  9.4646528
165  8.5265998
166  8.5884567
167  9.7117888
168  9.0421488
169  10.197281
170  9.9130566
171  8.8221499
172  11.06819
173  10.750471
174  9.502735
175  9.5700546
176  9.3169769
177  9.7238819
178  9.6373714
179  10.101559
180  10.717643
181  10.214864
182  11.85355
183  9.9555059
184  11.525022
185  11.125945
186  11.263745
187  10.858822
188  9.8615097
189  8.9083863
190  9.3425495
191  10.690757
192  11.258451
193  10.289609
194  11.126426
195  11.095386
196  10.630551
197  10.523402
198  10.596016
199  9.0675191
200  10.758242
201  11.264115
202  9.7740328
203  10.200743
204  10.657891
205  11.173239
206  10.647082
207  9.6052778
208  8.9078552
209  10.320216
210  11.147848
211  11.548377
212  10.901668
213  11.27945
214  11.95329
215  11.153219
216  11.237665
217  12.17233
218  12.202996
219  10.914135
220  11.712761
221  11.888446
222  12.649963
223  12.78256
224  11.414281
225  11.454048
226  11.215593
227  12.109766
228  12.342416
229  10.6284
230  10.789117
231  10.906168
232  10.915576
233  11.345737
234  11.236581
235  11.328937
236  12.711737
237  12.167233
238  13.28912
239  12.000453
240  12.968212
241  12.140964
242  11.02296
243  10.382368
244  12.06332
245  11.880686
246  13.279649
247  11.89072
248  13.316682
249  11.815075
250  10.934255
251  11.918187
252  13.014413
253  12.281963
254  11.204365
255  11.014384
256  11.612749
257  11.544623
258  12.487128
259  12.337
260  13.232698
261  10.984208
262  12.160926
263  10.903772
264  12.171004
265  11.857525
266  11.776257
267  11.43736
268  12.389971
269  10.730013
270  10.334949
271  11.555771
272  10.561592
273  9.0760185
274  10.352877
275  10.05633
276  8.5020981
277  11.503231
278  10.238904
279  10.062825
280  10.577049
281  9.5984725
282  10.303313
283  10.555571
284  10.7904
285  10.788304
286  10.27658
287  11.367802
288  10.666769
289  10.80061
290  11.546331
291  11.435905
292  10.715851
293  11.328137
294  10.3164
295  11.251351
296  11.282034
297  11.487767
298  9.8475213
299  10.728906
300  10.479344
301  9.22599
302  10.206843
303  10.432449
304  10.0427
305  9.5803564
306  9.6913532
307  9.7041327
308  10.895502
309  10.733799
310  10.448762
311  11.821943
312  12.094986
313  10.540326
314  8.6672464
315  10.130903
316  9.6688193
317  9.8218046
318  11.262204
319  9.6328266
320  11.122064
321  11.405875
322  10.395225
323  11.333399
324  11.460797
325  11.517619
326  11.452605
327  11.107368
328  10.584111
329  11.373849
330  11.837138
331  10.647652
332  10.494614
333  11.615467
334  11.045883
335  9.8005295
336  10.866644
337  9.2509418
338  10.212145
339  10.312811
340  10.371985
341  10.567863
342  11.052185
343  10.830282
344  9.2583237
345  10.906043
346  10.775083
347  10.282293
348  12.070391
349  10.593963
350  9.1962669
351  10.494225
352  10.378996
353  10.123193
354  10.000634
355  11.007336
356  9.7867117
357  9.9808469
358  9.8700944
359  10.887597
360  10.512312
361  10.974963
362  10.822081
363  11.293347
364  9.9209491
365  8.7845168
366  9.6845555
367  10.094174
368  9.5688794
369  9.7968602
370  11.109148
371  10.491663
372  10.811291
373  10.289287
374  10.958573
375  10.14543
376  10.830131
377  10.682013
378  11.146352
379  10.724334
380  10.299312
381  10.052738
382  11.740872
383  12.806534
384  10.915036
385  10.088964
386  11.069313
387  12.556927
388  10.023138
389  9.8131056
390  10.5732
391  10.045409
392  10.222368
393  11.349956
394  11.611026
395  10.171219
396  9.8930611
397  10.018386
398  10.362515
399  10.414796
400  9.8495156
401  10.01514
402  11.267178
403  11.473228
404  10.806072
405  8.8006221
406  9.6961307
407  10.76567
408  10.372518
409  10.445981
410  12.092944
411  10.263733
412  9.9851667
413  11.448056
414  10.621172
415  10.094896
416  10.314408
417  10.981819
418  10.764227
419  10.579318
420  10.03368
421  11.866431
422  10.710329
423  10.771796
424  11.922877
425  11.618927
426  10.894038
427  10.771918
428  10.010938
429  11.843189
430  10.495138
431  10.374233
432  9.7997002
433  10.509892
434  9.9951844
435  8.8517643
436  9.8523771
437  9.5576682
438  10.358816
439  10.278745
440  10.430858
441  10.806994
442  9.2029024
443  9.9353582
444  11.101006
445  10.982785
446  9.5996641
447  10.129581
448  10.601931
449  10.235264
450  11.41517
451  11.521398
452  10.376954
453  10.917253
454  10.382612
455  11.537837
456  10.637406
457  10.426189
458  13.504524
459  10.806262
460  9.7775786
461  11.337662
462  10.518039
463  12.036423
464  11.161317
465  10.77916
466  9.3854737
467  9.1598728
468  9.8293025
469  12.016012
470  10.46032
471  10.54207
472  13.8651
473  12.450278
474  11.338807
475  9.1725217
476  8.7804027
477  10.08918
478  9.7743053
479  10.802923
480  10.385086
481  10.41408
482  9.9081949
483  9.1515949
484  10.456784
485  11.050531
486  11.020887
487  11.616089
488  11.327456
489  11.291512
490  11.340739
491  11.992392
492  10.850548
493  10.598712
494  11.706231
495  10.932404
496  10.870984
497  11.126022
498  10.828586
499  9.8971331
500  9.6194222
501  10.438372
502  10.266813
503  9.8245896
504  10.481336
505  9.0966843
506  10.235148
507  10.253866
508  12.071661
509  11.243231
510  10.9771
511  10.798834
512  10.115184
513  9.9540291
514  9.4927213
515  9.5590783
516  11.020672
517  10.384979
518  9.8422019
519  10.807092
520  10.293769
521  10.540968
522  11.391075
523  11.172709
524  9.9988135
525  11.829342
526  10.163231
527  8.8296799
528  9.617765
529  10.699922
530  11.767259
531  10.951284
532  10.849721
533  9.4507862
534  8.7107079
535  9.4244398
536  10.218724
537  9.8215028
538  10.84638
539  10.192399
540  10.240997
541  10.693894
542  10.921118
543  11.007743
544  10.881515
545  9.8122845
546  11.793876
547  11.838812
548  10.617529
549  10.176693
550  9.7490162
551  9.9749356
552  9.8631865
553  10.062296
554  10.087609
555  10.138071
556  11.510345
557  10.017984
558  11.133387
559  11.861608
560  10.365749
561  9.630632
562  10.097309
563  10.476093
564  12.009402
565  11.953018
566  10.574441
567  11.689201
568  12.283998
569  12.979597
570  10.486871
571  11.389595
572  10.742473
573  10.937056
574  10.353688
575  9.8173294
576  10.697679
577  11.366786
578  11.073947
579  10.340591
580  10.850776
581  10.032461
582  10.852347
583  12.331387
584  13.069088
585  11.100152
586  11.149777
587  11.60939
588  9.9366204
589  9.9177569
590  11.158904
591  11.850459
592  12.319656
593  12.980512
594  10.694461
595  11.114825
596  12.78408
597  13.562405
598  11.11342
599  10.705814
600  10.951642
601  12.250729
602  12.510534
603  11.115469
604  11.38886
605  11.246924
606  11.925936
607  11.868436
608  11.264037
609  13.132134
610  12.937913
611  9.7231885
612  10.900578
613  11.724533
614  11.770602
615  13.02554
616  11.688661
617  10.632909
618  11.978545
619  12.766706
620  11.533879
621  10.806286
622  12.436913
623  12.280143
624  12.730472
625  11.386131
626  12.979704
627  13.647284
628  13.628966
629  12.801096
630  12.565114
631  12.290016
632  12.160985
633  12.014711
634  13.542813
635  13.27976
636  12.689913
637  13.066104
638  14.010708
639  13.552139
640  13.241189
641  13.966807
642  14.322486
643  14.173007
644  14.421985
645  13.155555
646  13.047851
647  13.39593
648  13.385774
649  13.036533
650  12.790551
651  14.697467
652  12.657417
653  12.164198
654  13.541953
655  13.357283
656  13.50266
657  13.491574
658  15.036929
659  15.061871
660  13.191929
661  13.700848
662  14.991534
663  13.055215
664  14.440243
665  14.286705
666  16.177448
667  16.283396
668  16.803266
669  14.873204
670  14.284232
671  15.082606
672  14.363559
673  15.44251
674  13.550731
675  14.050143
676  13.619222
677  15.465826
678  13.788021
679  13.572735
680  14.070705
681  12.840026
682  12.737349
683  13.277128
684  14.638701
685  15.239969
686  17.021358
687  15.03135
688  16.533088
689  19.608475
690  19.507516
691  16.543415
692  15.043659
693  13.618629
694  13.434976
695  15.236464
696  14.148828
697  14.29714
698  14.560299
699  10.260206
700  11.806416
701  12.644283
702  13.775044
703  15.424546
704  19.976991
705  22.341587
706  18.210677
707  15.954064
708  14.394595
709  12.480705
710  11.727541
711  12.713654
712  13.740702
713  13.531756
714  12.423812
715  13.481082
716  13.872275
717  14.160851
718  14.072311
719  14.533336
720  12.485332
721  13.78495
722  14.672475
723  14.839425
724  13.41928
725  14.085958
726  14.374504
727  14.894102
728  14.646917
729  13.317512
730  14.753025
731  14.857883
732  14.45878
733  14.238161
734  13.688062
735  15.387021
736  14.562511
737  12.728597
738  13.490966
739  13.684108
740  15.631453
741  13.906901
742  13.679507
743  14.334681
744  15.366704
745  14.251956
746  13.830588
747  14.89689
748  15.029224
749  16.726284
750  14.650896
751  13.790097
752  15.521605
753  14.086161
754  13.824252
755  14.754801
756  14.321599
757  13.801656
758  13.619323
759  15.209593
760  14.278257
761  13.415446
762  13.130913
763  13.508075
764  13.893313
765  16.067253
766  14.86909
767  13.935328
768  14.442909
769  15.475819
770  13.582723
771  13.847992
772  13.861607
773  14.424546
774  14.452456
775  16.621112
776  15.109782
777  14.807107
778  14.427003
779  14.481162
780  13.735261
781  15.817367
782  16.003559
783  14.294638
784  15.178774
785  16.561243
786  15.699479
787  15.428554
788  15.77695
789  15.647508
790  16.41456
791  16.19099
792  15.798845
793  15.038318
794  17.719647
795  16.320901
796  15.230952
797  14.432145
798  14.422337
799  15.060317
800  16.11152
801  16.615406
802  13.614991
803  15.35797
804  15.975421
805  16.80096
806  16.417597
807  15.21265
808  14.891005
809  15.37613
810  17.218074
811  16.217888
812  17.729813
813  18.390363
814  16.036344
815  15.336992
816  15.204755
817  15.855096
818  15.924945
819  17.287855
820  16.665355
821  15.676222
822  16.227156
823  16.834313
824  17.658505
825  17.504562
826  16.562221
827  15.863747
828  16.542347
829  16.338244
830  17.590891
831  17.811243
832  16.794165
833  16.053129
834  16.27921
835  16.885329
836  14.496062
837  15.526706
838  18.316299
839  18.619055
840  18.25403
841  16.757539
842  16.404887
843  17.873803
844  16.440137
845  17.102912
846  19.29274
847  16.810151
848  17.157601
849  18.082632
850  17.87987
851  16.874647
852  17.169023
853  18.556266
854  17.413815
855  18.241603
856  17.862658
857  18.666894
858  17.76808
859  14.907929
860  16.212662
861  18.044483
862  16.816772
863  17.664158
864  17.812198
865  18.701618
866  18.526254
867  18.05854
868  17.222116
869  16.028248
870  18.176692
871  17.466485
872  17.976614
873  18.026871
874  18.715143
875  17.178201
876  16.800804
877  17.617712
878  15.970161
879  16.3712
880  16.17873
881  17.29383
882  16.902245
883  19.156568
884  19.154993
885  19.038121
886  18.540431
887  17.896339
888  18.569543
889  18.528882
890  18.397416
891  19.568576
892  16.995068
893  18.109377
894  19.409401
895  17.044911
896  19.039259
897  19.581992
898  18.961571
899  19.260244
900  21.430896
901  19.824543
902  19.180043
903  19.674147
904  18.776282
905  18.942751
906  17.751376
907  17.696962
908  19.435887
909  19.54304
910  18.52043
911  20.864013
912  20.532344
913  18.687994
914  19.125595
915  18.363684
916  18.768191
917  18.166392
918  17.790175
919  18.13799
920  18.362854
921  19.163592
922  19.384431
923  18.672866
924  19.362169
925  18.614413
926  18.357901
927  19.301904
928  19.097918
929  18.221631
930  18.389818
931  18.658176
932  19.054502
933  18.574121
934  17.577459
935  17.071393
936  18.072865
937  19.346567
938  18.028297
939  18.724366
940  19.184586
941  17.661321
942  18.956519
943  18.562705
944  16.07157
945  15.008905
946  17.37757
947  16.518995
948  17.291791
949  16.201602
950  17.613083
951  19.281005
952  20.768356
953  29.61174
954  28.720154
955  28.214968
956  22.640729
957  17.833276
958  16.533782
959  15.821473
960  15.927545
961  14.167719
962  15.862346
963  15.949266
964  14.242811
965  13.602465
966  13.930915
967  14.457436
968  15.784222
969  15.275809
970  15.558513
971  14.632497
972  16.184315
973  14.988398
974  16.248177
975  15.039502
976  15.215232
977  16.683658
978  13.871732
979  15.429771
980  15.36118
981  16.723728
982  15.357009
983  16.315785
984  15.657674
985  15.596384
986  17.221395
987  16.099893
988  16.053482
989  16.795996
990  15.854174
991  15.366031
992  15.581835
993  14.897378
994  14.149363
995  14.876023
996  16.805124
997  17.073025
998  16.329481
999  16.708101
1000  15.471302
1001  18.254016
1002  16.72089
1003  15.055292
1004  15.642308
1005  14.835723
1006  15.199617
1007  14.61214
1008  16.27291
1009  17.325943
1010  15.976752
1011  16.701509
1012  17.201769
1013  16.85434
1014  15.765718
1015  18.005979
1016  18.510284
1017  16.189016
1018  17.125804
1019  16.952699
1020  17.073779
1021  15.626066
1022  16.347435
1023  16.108025
1024  17.712862
1025  15.320636
1026  15.419923
1027  15.783387
1028  16.030423
1029  16.419263
1030  15.659753
1031  15.428874
1032  16.197623
1033  15.849756
1034  18.024446
1035  15.695525
1036  15.796093
1037  14.664085
1038  14.576302
1039  17.382412
1040  18.384952
1041  16.674706
1042  16.487779
1043  16.255289
1044  17.111793
1045  16.805333
1046  15.596692
1047  16.545871
1048  17.355585
1049  16.57072
1050  17.423831
1051  17.093643
1052  15.154884
1053  14.1869
1054  15.86965
1055  14.82026
1056  14.007736
1057  14.713576
1058  14.302221
1059  14.527411
1060  14.750666
1061  16.364016
1062  16.394165
1063  16.082536
1064  14.660827
1065  15.811875
1066  15.448288
1067  16.486138
1068  16.071243
1069  16.419697
1070  15.972808
1071  16.152988
1072  13.926946
1073  15.105522
1074  14.605192
1075  14.290586
1076  16.126648
1077  15.652318
1078  16.593217
1079  15.130773
1080  15.28141
1081  16.674079
1082  16.372376
1083  17.189306
1084  15.583929
1085  16.230587
1086  14.245912
1087  13.822616
1088  15.43944
1089  16.338581
1090  15.552927
1091  15.629974
1092  16.964928
1093  17.516444
1094  15.070469
1095  15.853554
1096  16.219342
1097  13.749749
1098  15.531136
1099  13.518828
1100  16.850635
1101  15.887957
1102  15.770866
1103  15.860407
1104  15.939219
1105  15.716533
1106  15.606546
1107  15.788463
1108  15.986783
1109  16.885953
1110  15.035486
1111  16.631483
1112  15.67968
1113  17.730264
1114  17.32858
1115  16.393549
1116  15.363521
1117  16.333467
1118  16.529535
1119  16.386682
1120  16.039168
1121  15.656834
1122  16.200855
1123  18.882794
1124  16.596396
1125  15.676844
1126  16.245708
1127  16.296668
1128  15.423497
1129  14.486702
1130  16.634516
1131  16.147814
1132  16.092884
1133  18.423202
1134  15.192874
1135  15.857304
1136  15.812509
1137  17.363764
1138  16.989465
1139  16.741111
1140  16.785523
1141  16.567951
1142  15.900793
1143  16.067682
1144  16.590496
1145  17.684611
1146  19.167467
1147  17.479402
1148  17.713897
1149  16.669445
1150  16.480803
1151  16.627548
1152  15.403009
1153  17.461982
1154  17.044636
1155  17.3915
1156  17.763708
1157  17.297317
1158  17.073313
1159  14.558561
1160  15.798059
1161  18.12991
1162  16.304913
1163  18.349195
1164  17.100755
1165  17.444983
1166  17.120067
1167  17.436881
1168  16.799421
1169  17.101252
1170  18.459453
1171  18.476896
1172  16.345124
1173  15.593474
1174  17.674828
1175  18.266022
1176  18.221969
1177  18.400379
1178  18.042609
1179  16.429137
1180  18.267125
1181  17.700057
1182  17.609336
1183  17.941182
1184  18.060689
1185  17.201576
1186  15.990985
1187  16.161545
1188  15.602636
1189  16.708134
1190  13.889173
1191  13.352848
1192  14.967987
1193  14.361225
1194  14.640908
1195  15.503115
1196  16.641439
1197  17.841729
1198  19.506502
1199  36.990304
1200  51.386576
1201  35.795862
1202  15.566265
1203  13.081844
1204  13.290935
1205  14.211369
1206  13.763445
1207  13.233054
1208  13.370511
1209  12.664606
1210  13.47185
1211  13.887311
1212  12.905121
1213  14.801168
1214  12.950123
1215  13.72985
1216  12.650911
1217  13.954061
1218  13.163702
1219  11.962227
1220  11.808534
1221  11.976341
1222  12.243626
1223  12.32954
1224  12.919717
1225  12.243989
1226  12.166475
1227  10.839269
1228  12.543192
1229  13.780749
1230  12.509652
1231  11.437714
1232  10.719272
1233  10.837736
1234  11.970677
1235  11.831718
1236  11.226058
1237  10.361601
1238  11.769451
1239  10.395644
1240  13.590955
1241  12.40538
1242  12.653688
1243  13.21998
1244  13.297979
1245  12.836763
1246  11.060558
1247  9.3022378
1248  10.070788
1249  11.693949
1250  10.596311
1251  8.5103043
1252  9.3066906
1253  9.4968534
1254  13.39989
1255  15.427595
1256  14.740531
1257  10.724736
1258  9.5787936
1259  8.7614264
1260  8.3445907
1261  8.685922
1262  7.8960168
1263  7.6371421
1264  6.6338222
1265  7.8852196
1266  7.1639177
1267  6.9827326
1268  6.8551726
1269  7.3783771
1270  6.994419
1271  7.2621276
1272  6.817685
1273  6.3898226
1274  6.8038719
1275  7.2169877
1276  7.1414255
1277  6.6044893
1278  6.6585465
1279  7.0663882
1280  6.2359911
1281  6.8080129
1282  6.4033854
1283  7.2456494
1284  8.123742
1285  7.1762756
1286  7.6232962
1287  6.8949839
1288  6.6708438
1289  6.2205756
1290  6.4511727
1291  7.046603
1292  7.3549633
1293  6.0808724
1294  6.5735435
1295  8.1363649
1296  6.7659866
1297  5.7382376
1298  5.929503
1299  6.2391376
1300  6.7131213
1301  6.3891426
1302  6.8762679
1303  7.3978013
1304  7.0199165
1305  7.2487836
1306  7.1399356
1307  7.9942358
1308  7.5430395
1309  6.4385097
1310  7.0808956
1311  6.539685
1312  7.4186367
1313  6.302645
1314  6.5454242
1315  7.1993669
1316  6.3075694
1317  5.2700638
1318  5.6016792
1319  7.1821357
1320  6.7486096
1321  6.1805819
1322  5.969905
1323  5.5347317
1324  5.6136954
1325  6.7126093
1326  6.6165397
1327  6.7584595
1328  6.2803529
1329  6.2217984
1330  6.2250253
1331  7.2257153
1332  8.0466127
1333  6.7344184
1334  6.1797575
1335  6.9437199
1336  6.6075402
1337  6.2946117
1338  5.9148172
1339  6.7666639
1340  6.5507864
1341  6.6103751
1342  6.2925359
1343  6.2064334
1344  6.064947
1345  6.6372957
1346  6.7793129
1347  6.6958269
1348  6.8511064
1349  7.4316319
1350  6.8244828
1351  6.9701477
1352  6.2873033
1353  5.8492096
1354  6.6162571
1355  6.6809561
1356  6.4905478
1357  8.1498888
1358  6.5091764
1359  6.1450055
1360  6.8968202
1361  6.5536498
1362  6.4978019
1363  6.6945173
1364  6.7082258
1365  7.086346
1366  6.8801746
1367  7.357978
1368  7.2290309
1369  7.0022954
1370  6.679059
1371  6.7908047
1372  7.1455344
1373  6.8806436
1374  6.2340432
1375  6.6026049
1376  6.2920327
1377  6.6151117
1378  6.1246323
1379  6.0262877
1380  6.2064375
1381  6.3168466
1382  6.7074258
1383  5.6941504
1384  5.6522628
1385  6.5970884
1386  6.3476116
1387  5.9554101
1388  6.1389533
1389  5.6787657
1390  6.8614816
1391  7.9198462
1392  7.6895573
1393  8.8126172
1394  8.3329845
1395  8.2202973
1396  6.6402833
1397  5.8481401
1398  5.8824282
1399  5.4009284
1400  5.4770383
1401  5.5657086
1402  4.9153046
1403  5.1570391
1404  6.2456919
1405  5.9508211
1406  6.1173554
1407  4.8607883
1408  5.4177231
1409  5.4049235
1410  5.2448209
1411  5.4792436
1412  5.6529225
1413  6.3781079
1414  5.8903684
1415  5.9905564
1416  5.8439804
1417  5.1729146
1418  5.1528053
1419  5.2030627
1420  5.529737
1421  5.1759369
1422  6.7490459
1423  4.9001828
1424  4.8085047
1425  5.4122959
1426  5.2140858
1427  5.8124878
1428  4.835879
1429  4.344622
1430  4.7741014
1431  5.1423969
1432  5.2980457
1433  5.4819201
1434  5.0106763
1435  4.9453258
1436  5.381269
1437  5.2002723
1438  5.5632822
1439  5.9926715
1440  5.6077724
1441  5.7162353
1442  5.0209499
1443  5.1526982
1444  3.5592995
1445  4.3787619
1446  4.3142964
1447  4.1372488
1448  3.7672757
1449  3.4755558
1450  3.5332811
1451  2.8160401
1452  2.4481941
1453  2.1479146
1454  2.6563625
1455  2.4060599
1456  3.4100887
1457  9.2151092
1458  9.0491822
1459  12.786561
1460  8.495361
1461  1.9778862
1462  2.115478
1463  1.8456614
1464  2.3729481
1465  1.462282
1466  1.1765127
1467  1.2683309
1468  1.0655463
1469  0.94141699
1470  0.88914091
1471  1.1528648
1472  0.83201375
1473  0.65875942
1474  0.66663708
1475  0.57827964
1476  0.75170908
1477  1.0815373
1478  1.1105022
1479  1.1919827
1480  0.7214617
1481  0.95433013
1482  0.82546614
1483  0.434836
1484  0.43986012
1485  0.42461112
1486  0.45281945
1487  0.45864304
1488  0.50687919
1489  0.52454865
1490  0.43572372

# Region:            overview (2)
# Spectrum ID:       6
# Acquisition Date:  06/23/22 12:15:04 UTC
# Analysis Method:   XPS
# Analyzer:          Analyzer
# Analyzer Lens:     MediumArea:1.5kV
# Analyzer Slit:     4:3x20\B:open
# Scan Mode:         FixedAnalyzerTransmission
# Curves/Scan:       1
# Values/Curve:      941
# Dwell Time:        0.1
# Excitation Energy: 1486.71
# Kinetic Energy:    550
# Pass Energy:       50
# Bias Voltage:      -1
# Detector Voltage:  1800
# Eff. Workfunction: 4.498
# Source:            XR 50 MF (UXC1000)
# Comment:           x=3.5, y=13 z=554 (center), th=40, slit 4, Iris 40, RT=299K
# OrdinateRange:     [-7.000000, 7.000000]
#
# Cycle: 0
# Number of Scans: 1
#
# Cycle: 0, Curve: 0
# Acquisition Date: 06/23/22 12:15:04 UTC
#
# ColumnLabels: energy counts/s
#
550  3.1042714
551  2.735026
552  3.008151
553  3.212373
554  3.5917508
555  3.5129246
556  4.0609893
557  3.6676044
558  2.8127626
559  3.4176369
560  3.4640193
561  3.1289074
562  3.1407658
563  3.143617
564  2.7481742
565  3.4326773
566  3.2210377
567  3.3721588
568  3.1963523
569  3.5802682
570  3.2594556
571  3.2566017
572  4.3490485
573  3.3613813
574  2.8603317
575  3.1280069
576  3.1585484
577  3.2641623
578  3.4836847
579  4.122673
580  3.3705395
581  3.3229059
582  3.1175005
583  3.2504396
584  2.9186767
585  2.9663437
586  3.7918777
587  2.5359467
588  2.8617974
589  3.1966037
590  2.6441443
591  2.6631679
592  3.5279424
593  3.3760283
594  3.0602653
595  2.8702578
596  2.6718188
597  2.9396425
598  3.1068111
599  3.2906116
600  3.2111926
601  3.2749919
602  3.9405923
603  3.9791116
604  4.9733592
605  3.5989529
606  2.8850252
607  3.4660354
608  3.4884941
609  3.32268
610  2.6555234
611  3.4108155
612  3.6077324
613  3.8511675
614  3.7320188
615  3.2920059
616  2.9436705
617  3.703678
618  3.3631418
619  2.7379048
620  3.0333495
621  3.7566351
622  4.9129213
623  3.4035897
624  3.6892432
625  3.1967505
626  3.5930919
627  3.7555228
628  3.1812671
629  3.6021263
630  3.0912952
631  4.2093714
632  3.8759409
633  4.2935078
634  3.9242434
635  3.7538959
636  3.7882591
637  4.0225473
638  3.9793699
639  3.5392987
640  3.2293674
641  2.9307939
642  3.1217659
643  3.288882
644  2.7056049
645  3.3721567
646  3.4742544
647  3.4628674
648  4.0301158
649  3.0894584
650  3.5832137
651  3.5205801
652  3.6460254
653  3.2220192
654  3.1832768
655  3.5130076
656  3.5915541
657  2.9441308
658  3.6188384
659  3.5293242
660  3.3634707
661  3.8809268
662  4.2477284
663  3.5955577
664  3.9873171
665  3.7769657
666  2.7904767
667  2.8739538
668  2.9548232
669  2.6471261
670  3.1711666
671  3.9469489
672  3.5785122
673  3.7488266
674  3.9574608
675  3.7763973
676  4.1389151
677  3.7221628
678  3.1527612
679  3.0281509
680  3.0627306
681  3.0313571
682  3.3643998
683  3.6780577
684  3.0580145
685  3.6242409
686  3.4870946
687  3.4353524
688  3.2042995
689  3.7915148
690  3.9969798
691  3.7491354
692  3.3083589
693  3.7452342
694  4.2650005
695  4.9420758
696  3.1538999
697  3.4540168
698  3.8553995
699  3.4413208
700  3.7103651
701  4.1785387
702  3.963926
703  4.1483328
704  3.0345238
705  3.145248
706  3.5576919
707  3.5414082
708  4.0397237
709  3.4587939
710  3.7175308
711  3.1490293
712  3.3892177
713  3.3515527
714  3.8358885
715  3.6107515
716  3.9682575
717  4.3496066
718  4.1017489
719  3.9960758
720  3.6812148
721  3.4823252
722  3.5566979
723  3.5887582
724  3.0946656
725  3.3225154
726  3.2216615
727  3.466543
728  3.648359
729  3.1914413
730  3.6389537
731  3.4729537
732  2.8800231
733  2.78694
734  2.7846285
735  3.098922
736  3.2834083
737  3.1459391
738  3.1272798
739  3.4623428
740  3.3676606
741  3.1532453
742  2.4421321
743  2.78599
744  2.6118178
745  3.45019
746  3.3971405
747  2.5492959
748  3.4433703
749  3.3902639
750  2.4322747
751  2.5787288
752  2.6178942
753  3.0912831
754  2.5968441
755  3.0864663
756  2.6146477
757  3.3798424
758  2.9676128
759  3.9621615
760  4.1710864
761  2.3781513
762  2.9561163
763  2.7267096
764  3.1421533
765  3.4686326
766  3.0490599
767  2.1489367
768  3.273241
769  2.7992538
770  2.5858591
771  2.1315902
772  1.8097287
773  2.3089414
774  2.3463672
775  2.6561709
776  2.9173728
777  3.6254548
778  2.8861206
779  1.9984719
780  1.628798
781  2.2238236
782  1.9085841
783  2.0863498
784  3.1242172
785  2.5024213
786  2.6762935
787  2.2365131
788  2.1541494
789  2.7616574
790  1.9737585
791  2.0617925
792  2.480297
793  2.0361888
794  2.06936
795  2.2259197
796  2.2882477
797  2.1084223
798  2.0750165
799  2.4403471
800  2.2958412
801  2.1566074
802  2.59159
803  2.3771819
804  1.7974263
805  1.9703476
806  1.8152232
807  2.1538531
808  2.1791232
809  2.0358091
810  2.5218165
811  2.0662482
812  1.8057436
813  1.8426826
814  1.6622431
815  1.9821912
816  1.6647882
817  1.6077836
818  1.4435135
819  1.6095389
820  1.6611897
821  1.5760874
822  1.8820835
823  1.6222549
824  1.7902231
825  1.8532448
826  1.713848
827  2.2766751
828  1.6925555
829  2.1849438
830  1.671926
831  1.3769736
832  1.4316568
833  1.6993062
834  1.9173096
835  1.4760315
836  1.3157474
837  1.243045
838  1.9686682
839  1.3450627
840  0.85093136
841  0.92795863
842  0.9546794
843  1.1286885
844  1.1968764
845  0.96295815
846  1.0797994
847  1.1152372
848  1.009071
849  1.1514701
850  1.1968878
851  1.1072031
852  1.028737
853  1.0372288
854  1.3942484
855  1.0805441
856  0.94164497
857  0.97077728
858  1.1271425
859  0.89595905
860  1.1961586
861  0.6517535
862  1.0761218
863  0.94989194
864  0.62654461
865  0.83309258
866  0.84301313
867  0.81949629
868  0.90202428
869  0.90968339
870  0.9629732
871  1.4058193
872  0.93011671
873  0.75947784
874  0.73245957
875  0.75823838
876  0.9897743
877  0.84117506
878  0.70566244
879  0.90424274
880  0.7983279
881  1.3309456
882  1.0824617
883  0.85203566
884  0.83711316
885  1.0162866
886  0.80659064
887  0.84507211
888  1.0694624
889  0.60217809
890  0.6900675
891  0.91750361
892  1.0442046
893  0.56356357
894  0.68056135
895  0.87918939
896  0.81477833
897  0.78449929
898  0.80657109
899  0.73668682
900  0.6883637
901  0.63529642
902  0.74065567
903  0.71267272
904  0.82113392
905  1.079825
906  0.77753214
907  0.77230585
908  0.7572534
909  0.79299663
910  0.73000142
911  0.81782631
912  0.59517566
913  0.65493761
914  0.82940929
915  0.73826031
916  0.81825555
917  1.0320368
918  1.190158
919  1.2009751
920  1.4714065
921  0.88413678
922  0.68692966
923  0.73121895
924  0.74089896
925  0.77649196
926  0.89428993
927  0.66415861
928  0.59743909
929  0.68442396
930  0.81978813
931  0.60211313
932  0.71994713
933  0.69583527
934  0.80472993
935  0.70316499
936  0.83133911
937  0.94497371
938  0.6781751
939  0.59754495
940  0.88141786
941  0.74406052
942  0.58660327
943  0.60993549
944  0.63561913
945  0.73959049
946  0.57367105
947  0.52912636
948  0.66259507
949  0.56836518
950  0.64514177
951  0.71936865
952  0.66698211
953  0.71875779
954  0.63416995
955  0.70723792
956  0.68540556
957  0.89755994
958  0.63378362
959  0.52654005
960  0.62207406
961  0.57794184
962  0.77811003
963  0.89290016
964  1.5882991
965  0.66833248
966  0.59025114
967  0.66252225
968  0.49711741
969  0.74117284
970  0.61651757
971  0.75238238
972  0.61023529
973  0.59017082
974  0.91001079
975  0.78347038
976  0.65826461
977  0.54995571
978  0.6743484
979  0.57927264
980  0.53114195
981  0.51379962
982  0.45702603
983  0.55983501
984  0.62841969
985  0.73220262
986  0.82601332
987  0.54000509
988  0.47565598
989  0.58105266
990  0.79727387
991  1.2278665
992  1.1313016
993  0.85634004
994  0.93955857
995  0.66653291
996  0.47816686
997  1.2777113
998  0.93741779
999  1.1934073
1000  3.1357749
1001  0.78679896
1002  0.53435005
1003  0.49321675
1004  0.55415699
1005  0.45019289
1006  0.51856947
1007  0.74106407
1008  0.65291876
1009  0.80235267
1010  0.77953597
1011  0.8605654
1012  0.72039143
1013  0.53383584
1014  0.51814525
1015  0.5287466
1016  0.50461122
1017  0.51927349
1018  0.45360929
1019  0.53805198
1020  0.64020334
1021  0.62288422
1022  0.5239127
1023  0.60499095
1024  0.70580535
1025  0.77675253
1026  1.114051
1027  0.66713102
1028  0.7964242
1029  0.43944312
1030  0.48510476
1031  0.56469182
1032  0.46543804
1033  0.41706712
1034  0.52541666
1035  0.48155687
1036  0.51647303
1037  0.50036043
1038  0.6058414
1039  0.69363759
1040  0.55582857
1041  0.59138576
1042  0.51394491
1043  0.58079727
1044  0.42453939
1045  0.57536761
1046  0.45210274
1047  0.57706915
1048  0.73691787
1049  0.60000761
1050  0.57182531
1051  0.45911287
1052  0.60001846
1053  0.84873837
1054  0.48160827
1055  0.56137205
1056  0.69286858
1057  0.461986
1058  0.4764646
1059  0.56281426
1060  0.55829559
1061  0.62545209
1062  0.49962895
1063  0.50208287
1064  0.60528824
1065  0.5011979
1066  0.41079866
1067  0.43335972
1068  0.50441784
1069  0.51850997
1070  0.59997659
1071  0.69723293
1072  0.47193938
1073  0.44288583
1074  0.54169107
1075  0.43650485
1076  0.48600414
1077  0.44244483
1078  0.41636144
1079  0.39211164
1080  0.58992606
1081  1.2137959
1082  0.58625534
1083  0.58378939
1084  0.42143707
1085  0.47325204
1086  0.41300815
1087  0.46192956
1088  0.46656531
1089  0.43241927
1090  0.40134488
1091  0.43687848
1092  0.43390227
1093  0.56857808
1094  0.59489723
1095  0.8608838
1096  0.42932732
1097  0.38743472
1098  0.41879847
1099  0.41027656
1100  0.39955859
1101  0.45075188
1102  0.46683026
1103  0.44331948
1104  0.43291227
1105  0.38187835
1106  0.38951316
1107  0.38685323
1108  0.42199923
1109  0.49897149
1110  0.66001673
1111  0.87832749
1112  0.39269099
1113  0.40440703
1114  0.40001948
1115  0.38677157
1116  0.47903883
1117  0.39000721
1118  0.45003638
1119  0.38936084
1120  0.52063434
1121  0.50267775
1122  0.38846391
1123  0.39953228
1124  0.41536104
1125  0.41222555
1126  0.39909842
1127  0.70782538
1128  0.60139381
1129  0.38014193
1130  0.38222553
1131  0.95405726
1132  0.95632261
1133  0.49094846
1134  0.38792584
1135  0.392056
1136  0.38318022
1137  0.42028618
1138  0.40366363
1139  0.40383022
1140  0.58840456
1141  0.62726725
1142  0.49213577
1143  0.38061487
1144  0.38203343
1145  0.37680846
1146  0.39091957
1147  0.3844915
1148  0.38263775
1149  0.38532072
1150  0.6700974
1151  0.42904492
1152  0.40446789
1153  0.4024725
1154  0.36630027
1155  0.40831719
1156  0.42263409
1157  0.37800735
1158  0.38381841
1159  0.38943381
1160  0.42258044
1161  0.50319307
1162  0.43853007
1163  0.460944
1164  0.42852844
1165  0.40870715
1166  0.39663434
1167  0.40175461
1168  0.39994081
1169  0.38039834
1170  0.39719602
1171  0.40516157
1172  0.39010392
1173  0.4028889
1174  0.389626
1175  0.37675162
1176  0.38044429
1177  0.37825123
1178  0.38897662
1179  0.39777857
1180  0.38688177
1181  0.38940407
1182  0.57901164
1183  0.52117845
1184  0.39266156
1185  0.39791703
1186  0.38857788
1187  0.3846878
1188  0.38332474
1189  0.39140789
1190  0.38732626
1191  0.39565087
1192  0.39390052
1193  0.38786535
1194  0.38065384
1195  0.38995511
1196  0.39024254
1197  0.39014883
1198  0.39640987
1199  0.41114216
1200  0.38664359
1201  0.38972425
1202  0.47515749
1203  0.46885498
1204  0.40308053
1205  0.40041474
1206  0.40039146
1207  0.39144139
1208  0.41409892
1209  0.41536173
1210  0.39437732
1211  0.39290736
1212  0.40788101
1213  0.41327923
1214  0.3976188
1215  0.39416843
1216  0.40417646
1217  0.37968974
1218  0.3763137
1219  0.38504675
1220  0.39047002
1221  0.46288714
1222  1.0075656
1223  0.38628278
1224  0.66050343
1225  0.77572086
1226  0.41921373
1227  0.39040115
1228  0.39045479
1229  0.41722785
1230  0.45199661
1231  0.40533617
1232  0.39447621
1233  0.40458413
1234  0.39998623
1235  0.40661424
1236  0.87350096
1237  0.94286817
1238  0.40805999
1239  0.41342955
1240  0.40495822
1241  0.41260296
1242  0.39198443
1243  0.39446755
1244  0.46790507
1245  0.5606455
1246  0.40738375
1247  0.39523489
1248  0.39910034
1249  0.3836279
1250  0.37958544
1251  0.37609665
1252  0.37306514
1253  0.37453321
1254  0.38757968
1255  0.91317907
1256  0.59443774
1257  0.66414782
1258  0.38983627
1259  0.57759494
1260  1.1982642
1261  0.5016187
1262  0.38581204
1263  0.39092296
1264  0.40719517
1265  0.38696582
1266  0.39370482
1267  0.4085151
1268  0.37329461
1269  0.40056736
1270  0.40855826
1271  0.39373827
1272  0.38237288
1273  0.40644652
1274  0.38631944
1275  0.39271563
1276  0.38480163
1277  0.38603473
1278  0.39092282
1279  0.9174212
1280  0.37955254
1281  0.38225825
1282  0.91060388
1283  0.45683539
1284  0.39486551
1285  0.41962251
1286  0.39749819
1287  0.37376373
1288  0.39702838
1289  0.38879106
1290  0.36930478
1291  0.38509278
1292  0.39964803
1293  0.3859785
1294  0.42393638
1295  0.41685421
1296  0.39159744
1297  0.39481261
1298  0.3960414
1299  0.39142785
1300  0.38229154
1301  0.39138905
1302  0.40668438
1303  0.39029844
1304  0.38107759
1305  0.38922002
1306  0.38352313
1307  0.8943898
1308  0.50263441
1309  0.40382274
1310  0.40016466
1311  0.55307352
1312  0.44147619
1313  0.44876449
1314  0.39266346
1315  0.38941728
1316  0.40781647
1317  0.39385542
1318  0.42903031
1319  0.39209774
1320  0.38751626
1321  0.40594596
1322  0.41623803
1323  0.41136811
1324  0.38940968
1325  0.3935567
1326  0.40050692
1327  0.3981869
1328  0.43713581
1329  0.39312298
1330  0.4468813
1331  0.48643657
1332  0.3966337
1333  0.38742163
1334  0.39813713
1335  0.38871367
1336  0.46362781
1337  0.53644033
1338  0.73105979
1339  0.56187388
1340  0.38280157
1341  0.39984861
1342  0.38138289
1343  0.42561936
1344  0.44836136
1345  0.4313857
1346  0.38734671
1347  0.41574134
1348  0.39426345
1349  0.37555806
1350  0.37798505
1351  0.38769235
1352  0.72097506
1353  0.78994695
1354  0.39107682
1355  0.37997676
1356  0.38142891
1357  0.39631392
1358  0.40016034
1359  0.39789381
1360  0.40456181
1361  0.38579152
1362  0.37808007
1363  0.37964264
1364  0.38791417
1365  0.39650023
1366  0.39756104
1367  0.38633571
1368  0.39980877
1369  0.39153849
1370  0.63926209
1371  0.51842121
1372  0.41581977
1373  0.49271063
1374  0.37041922
1375  0.48952673
1376  0.55812271
1377  0.40605096
1378  0.37164236
1379  0.38578003
1380  0.38838454
1381  0.39136301
1382  0.41056986
1383  0.40557893
1384  0.38767941
1385  0.39070941
1386  0.37344988
1387  0.36210682
1388  0.3814917
1389  0.39122225
1390  0.39615969
1391  0.52968855
1392  0.53044339
1393  0.39327145
1394  0.39729766
1395  0.38787465
1396  0.37389063
1397  0.38673976
1398  0.41599639
1399  0.40563749
1400  0.39810448
1401  0.39030974
1402  0.40640256
1403  0.37741873
1404  0.38414595
1405  0.38258989
1406  0.37382911
1407  0.38636337
1408  0.38466464
1409  0.39590664
1410  0.39248617
1411  0.38584948
1412  0.37663305
1413  0.38084526
1414  0.37207841
1415  0.48554844
1416  0.41833245
1417  0.37779792
1418  0.3884517
1419  0.44106169
1420  0.50114075
1421  0.3764729
1422  0.38363307
1423  0.391957
1424  0.37985391
1425  0.49769267
1426  0.41747138
1427  0.47989864
1428  0.45161405
1429  0.48315701
1430  0.42671708
1431  0.69703824
1432  0.73430258
1433  0.39382457
1434  0.40177113
1435  0.73688055
1436  2.6296307
1437  0.48483106
1438  0.48252775
1439  0.5151396
1440  0.39122568
1441  0.3780774
1442  0.63233295
1443  1.9528028
1444  0.37918176
1445  0.38487543
1446  0.38541711
1447  0.3879876
1448  0.39167518
1449  0.39508781
1450  0.3899427
1451  0.51890116
1452  0.41972372
1453  0.59535927
1454  0.56848902
1455  0.40755547
1456  0.43746234
1457  0.39273618
1458  0.38388545
1459  0.85769983
1460  0.89972182
1461  0.47231986
1462  0.39718533
1463  0.38616391
1464  0.38548233
1465  0.38926727
1466  0.37970057
1467  0.37861442
1468  0.38596814
1469  0.39942625
1470  0.39720515
1471  0.3932675
1472  0.38257299
1473  0.38629152
1474  0.38498866
1475  0.40157892
1476  0.54086546
1477  0.37335544
1478  0.38076526
1479  0.42122322
1480  0.71848331
1481  0.3834557
1482  0.39977603
1483  0.39160776
1484  0.40699237
1485  0.38405725
1486  0.38474078
1487  0.41265994
1488  0.40262121
1489  0.50323303
1490  0.45082622
