# Created by:        SpecsLab Prodigy, Version 4.60.2-r85849 
#
# XY-Serializer Export Settings:
#   Comment Prefix:           #
#   Output meta data:         yes
#   Energy Axis:              Binding Energy
#   Count Rate:               Counts per Second
#   Separate Scan Data:       no
#   Separate Channel Data:    no
#   External Channel Data:    yes
#   Transmission Function:    no
#   ErrorBar:                 no
#   Operation Results:        yes
#   Time Zone Format:         UTC
#
# Group:             experiment
#
# Region:            Ba 3d
# Acquisition Date:  11/05/21 09:45:34 UTC
# Analysis Method:   XPS
# Analyzer:          Phoibos 100 R6
# Analyzer Lens:     LargeArea:1.5kV
# Analyzer Slit:     1:0.2x20\B:open
# Scan Mode:         FixedAnalyzerTransmission
# Curves/Scan:       1
# Values/Curve:      81
# Dwell Time:        0.8
# Excitation Energy: 1486.61
# Binding Energy:    784
# Pass Energy:       30
# Bias Voltage:      90
# Detector Voltage:  2600
# Eff. Workfunction: 4.309
# Source:            X-Ray Dummy
# Comment:           
#
# Cycle: 0
# Number of Scans: 80
#
# Cycle: 0, Curve: 0
# Acquisition Date: 11/05/21 09:45:34 UTC
#
# ColumnLabels: energy counts/s
#
784  8461.5625
783.9  8473.1406
783.8  8474.3281
783.7  8475.8438
783.6  8503.5625
783.5  8459.2656
783.4  8491.9219
783.3  8485.0938
783.2  8501.2813
783.1  8510.25
783  8501.375
782.9  8512.8125
782.8  8521.1094
782.7  8518.8594
782.6  8531.2813
782.5  8546.4531
782.4  8575.9375
782.3  8564.8125
782.2  8595.6719
782.1  8639.5625
782  8629.0938
781.9  8668.3125
781.8  8686.0938
781.7  8700.1094
781.6  8740.9688
781.5  8757.0625
781.4  8767.9531
781.3  8769.7813
781.2  8807.1406
781.1  8792.5313
781  8817.75
780.9  8807.6094
780.8  8810.3281
780.7  8809.0156
780.6  8774.1406
780.5  8758.5469
780.4  8728.6406
780.3  8703.0625
780.2  8708.8594
780.1  8664.5156
780  8634.25
779.9  8586.2656
779.8  8589.6406
779.7  8557.8906
779.6  8526.0156
779.5  8507.8125
779.4  8514.2813
779.3  8485.7969
779.2  8479.875
779.1  8475.0156
779  8460.1094
778.9  8442.7969
778.8  8434.7969
778.7  8440.1875
778.6  8411.0156
778.5  8412.6406
778.4  8423.9219
778.3  8400.3438
778.2  8425.6563
778.1  8408.75
778  8387.2344
777.9  8385.5938
777.8  8388.3906
777.7  8401.2188
777.6  8387.8906
777.5  8395.5781
777.4  8348.7813
777.3  8402
777.2  8382.3281
777.1  8373.7969
777  8375.9375
776.9  8389.8594
776.8  8396.3438
776.7  8387.7031
776.6  8373.0625
776.5  8366.5469
776.4  8361.6563
776.3  8373.0938
776.2  8386.2656
776.1  8377.3281
776  8365.4375

# Region:            O 1s (2)
# Acquisition Date:  11/05/21 09:07:27 UTC
# Analysis Method:   XPS
# Analyzer:          Phoibos 100 R6
# Analyzer Lens:     LargeArea:1.5kV
# Analyzer Slit:     1:0.2x20\B:open
# Scan Mode:         FixedAnalyzerTransmission
# Curves/Scan:       1
# Values/Curve:      61
# Dwell Time:        0.8
# Excitation Energy: 1486.61
# Binding Energy:    536
# Pass Energy:       30
# Bias Voltage:      90
# Detector Voltage:  2600
# Eff. Workfunction: 4.309
# Source:            X-Ray Dummy
# Comment:           
#
# Cycle: 0
# Number of Scans: 220
#
# Cycle: 0, Curve: 0
# Acquisition Date: 11/05/21 09:07:27 UTC
#
# ColumnLabels: energy counts/s
#
536  6822.6989
535.9  6834.1477
535.8  6825.358
535.7  6833.5511
535.6  6829.7273
535.5  6832.5511
535.4  6831.9659
535.3  6843.3409
535.2  6848.1989
535.1  6847.0284
535  6862.3409
534.9  6885.9318
534.8  6895.4545
534.7  6910.2955
534.6  6929.1591
534.5  6936.3864
534.4  6961.7955
534.3  6982.1932
534.2  6996.0568
534.1  7002.2273
534  7031.7841
533.9  7040.4261
533.8  7058.0341
533.7  7059.3636
533.6  7058.4261
533.5  7061.6705
533.4  7062.4602
533.3  7039.4943
533.2  7022.4716
533.1  6988.9034
533  6986.142
532.9  6946.625
532.8  6913.4318
532.7  6880.5568
532.6  6852.5227
532.5  6820.8011
532.4  6780.767
532.3  6743.7045
532.2  6724.25
532.1  6679.4545
532  6654.6193
531.9  6630.608
531.8  6606.2614
531.7  6587.1136
531.6  6562.5114
531.5  6549.733
531.4  6536.9602
531.3  6513.358
531.2  6509.5966
531.1  6483.7273
531  6480.608
530.9  6473.6705
530.8  6467.9205
530.7  6449.6193
530.6  6445.7159
530.5  6438.6761
530.4  6430.875
530.3  6431.5
530.2  6419.3864
530.1  6411.5568
530  6419.8864

# Operation:         Peak Fit
# Parameter: "Transition" = 
# Parameter: "Label" = 
# Parameter: "Background Method" = Tougaard
# Parameter: "Peak Shape" = Voigt
# Parameter: "Asymmetric Peak" = false
# Parameter: "FWHM-Annotation" = S-B = <Signal-BG:@>\nFWHM = <FWHM:@>\nArea = <Area:@>
# Parameter: "Peak-Annotation" = <Label>\n<Transition>\nE = <Center:@>
#
# Result:
# Number of Results: 2
# Parameter: "Transition" = 
# Parameter: "Label" = 
# Parameter: "Center" = 533.48236991263479 eV +- 0.0061953249703492475
# Parameter: "Area" = 2610.1406792167963 cps eV +- 135.15917155852253
# Parameter: "FWHM Lorentzian" = 2.1157954497014906 eV +- 0.2049323980951567
# Parameter: "FWHM Gaussian" = 1.3923177443930308 eV +- 0.1603281149056307
# Parameter: "Asymmetry" = 0 +- 0
# Parameter: "Tougaard B" = 164738.53674988449 eV^2 +- 5888.4895811802626
# Parameter: "Tougaard C" = 1643 eV^2 +- 0
# Parameter: "FWHM" = 2.8364391081523967 eV
# Parameter: "Offset (0th order)" = 6340.9032554892847 cps +- 10.087444254898401
# Parameter: "Abbe factor" = 0.89969868494723815
# Parameter: "Reduced Chi Square" = 0.99517539120180154
# Parameter: "Q Probability" = 0.48439651703624909
# Parameter: "Number of performed iterations" = 15
# Parameter: "Fit termination reason" = ConvergedInParameter
# Parameter: "Signal" = 7058.4461888488258 cps
# Parameter: "Signal-BG" = 642.25172903690634 cps
#
# Result Name:       Background
# Number of Curves:  1
#
# Curve:             0
# Values/Curve:      44
#
536  6706.8541
535.86047  6685.6076
535.72093  6664.8978
535.5814  6644.7228
535.44186  6625.0841
535.30233  6605.9873
535.16279  6587.4421
535.02326  6569.4625
534.88372  6552.0676
534.74419  6535.2808
534.60465  6519.1299
534.46512  6503.646
534.32558  6488.8628
534.18605  6474.8148
534.04651  6461.5353
533.90698  6449.0543
533.76744  6437.3961
533.62791  6426.5772
533.48837  6416.6045
533.34884  6407.4741
533.2093  6399.171
533.06977  6391.6692
532.93023  6384.9328
532.7907  6378.9183
532.65116  6373.5757
532.51163  6368.8518
532.37209  6364.6916
532.23256  6361.041
532.09302  6357.8478
531.95349  6355.0628
531.81395  6352.6412
531.67442  6350.5423
531.53488  6348.73
531.39535  6347.1721
531.25581  6345.8408
531.11628  6344.7116
530.97674  6343.7632
530.83721  6342.9771
530.69767  6342.3374
530.55814  6341.8301
530.4186  6341.443
530.27907  6341.1655
530.13953  6340.9883
530  6340.9033

# Result Name:       Peak Fit
# Number of Curves:  1
#
# Curve:             0
# Values/Curve:      44
#
536  6839.8213
535.86047  6833.1018
535.72093  6829.0808
535.5814  6828.069
535.44186  6830.3841
535.30233  6836.3241
535.16279  6846.127
535.02326  6859.9184
534.88372  6877.6478
534.74419  6899.0196
534.60465  6923.43
534.46512  6949.9234
534.32558  6977.1835
534.18605  7003.5735
534.04651  7027.2334
533.90698  7046.2301
533.76744  7058.747
533.62791  7063.2858
533.48837  7058.8467
533.34884  7045.0549
533.2093  7022.2081
533.06977  6991.2362
532.93023  6953.5813
532.7907  6911.0204
532.65116  6865.4642
532.51163  6818.7654
532.37209  6772.5643
532.23256  6728.1864
532.09302  6686.5982
531.95349  6648.4113
531.81395  6613.9244
531.67442  6583.1852
531.53488  6556.0589
531.39535  6532.2929
531.25581  6511.5706
531.11628  6493.5522
530.97674  6477.9026
530.83721  6464.3092
530.69767  6452.4899
530.55814  6442.1971
530.4186  6433.2167
530.27907  6425.3656
530.13953  6418.4887
530  6412.4543

# Region:            O 1s
# Acquisition Date:  11/05/21 01:00:11 UTC
# Analysis Method:   XPS
# Analyzer:          Phoibos 100 R6
# Analyzer Lens:     LargeArea:1.5kV
# Analyzer Slit:     1:0.2x20\B:open
# Scan Mode:         FixedAnalyzerTransmission
# Curves/Scan:       1
# Values/Curve:      351
# Dwell Time:        0.8
# Excitation Energy: 1486.61
# Binding Energy:    560
# Pass Energy:       30
# Bias Voltage:      90
# Detector Voltage:  2600
# Eff. Workfunction: 4.309
# Source:            X-Ray Dummy
# Comment:           
#
# Cycle: 0
# Number of Scans: 50
#
# Cycle: 0, Curve: 0
# Acquisition Date: 11/05/21 01:00:11 UTC
#
# ColumnLabels: energy counts/s
#
560  7363.85
559.9  7372.875
559.8  7359.1
559.7  7352.925
559.6  7366.825
559.5  7363.2
559.4  7373.525
559.3  7370.475
559.2  7350.475
559.1  7370.4
559  7367.475
558.9  7346.725
558.8  7356.5
558.7  7364.4
558.6  7382.35
558.5  7351.35
558.4  7371.2
558.3  7370.925
558.2  7356.4
558.1  7368.625
558  7371.4
557.9  7373.25
557.8  7365.525
557.7  7374.35
557.6  7373.45
557.5  7365.075
557.4  7358.325
557.3  7377.6
557.2  7303.075
557.1  7380.675
557  7392.25
556.9  7392.325
556.8  7360.3
556.7  7371.05
556.6  7389.9
556.5  7377.575
556.4  7403.675
556.3  7390.925
556.2  7375.325
556.1  7393.175
556  7367.8
555.9  7381.45
555.8  7376.4
555.7  7400.125
555.6  7387.15
555.5  7428.075
555.4  7385.875
555.3  7383.75
555.2  7382.1
555.1  7418.975
555  7427.95
554.9  7403.675
554.8  7440
554.7  7398.525
554.6  7425.1
554.5  7442.3
554.4  7416.6
554.3  7468.625
554.2  7435.975
554.1  7443.3
554  7458.825
553.9  7469.4
553.8  7482.675
553.7  7468.175
553.6  7503.9
553.5  7512.55
553.4  7515.05
553.3  7508.675
553.2  7526.725
553.1  7555.4
553  7555.525
552.9  7564.125
552.8  7585.075
552.7  7609.325
552.6  7591.05
552.5  7599.775
552.4  7613.925
552.3  7611.675
552.2  7672.75
552.1  7673.525
552  7679.425
551.9  7683.75
551.8  7711.4
551.7  7735.25
551.6  7737.925
551.5  7755.95
551.4  7795.775
551.3  7784.4
551.2  7840.4
551.1  7845.85
551  7860.675
550.9  7922.3
550.8  7926.525
550.7  7944.725
550.6  7984.35
550.5  8006.425
550.4  8065.375
550.3  8070.175
550.2  8084.3
550.1  8134.2
550  8190.85
549.9  8203.625
549.8  8251.45
549.7  8288.425
549.6  8326.5
549.5  8376.425
549.4  8420.7
549.3  8475.175
549.2  8520.1
549.1  8564.7
549  8619.25
548.9  8687.025
548.8  8704.25
548.7  8758.475
548.6  8801.575
548.5  8864.7
548.4  8918.6
548.3  8977.5
548.2  8987.925
548.1  9052.325
548  9122.325
547.9  9165.3
547.8  9218.475
547.7  9253.8
547.6  9319.3
547.5  9315.6
547.4  9371.35
547.3  9406.775
547.2  9429.775
547.1  9445.65
547  9450.8
546.9  9481.225
546.8  9505.725
546.7  9526.45
546.6  9520.55
546.5  9506.375
546.4  9487.325
546.3  9454.775
546.2  9443.225
546.1  9422.7
546  9343.725
545.9  9340.275
545.8  9294.9
545.7  9245.2
545.6  9172.425
545.5  9147.5
545.4  9090.85
545.3  9049.075
545.2  8986.65
545.1  8904.925
545  8837.525
544.9  8790.175
544.8  8717.675
544.7  8658.8
544.6  8592.475
544.5  8556.325
544.4  8465.125
544.3  8403.8
544.2  8341.4
544.1  8305.525
544  8246.225
543.9  8172.575
543.8  8128.625
543.7  8074.475
543.6  7994.525
543.5  8005.8
543.4  7932.1
543.3  7884.7
543.2  7850.45
543.1  7798.2
543  7756.975
542.9  7702.425
542.8  7674.225
542.7  7614.275
542.6  7600.2
542.5  7577.775
542.4  7530.4
542.3  7477.4
542.2  7484.9
542.1  7455.75
542  7421.825
541.9  7394.9
541.8  7369.425
541.7  7338.9
541.6  7335.075
541.5  7282.65
541.4  7285.425
541.3  7257.325
541.2  7237.5
541.1  7225.2
541  7193.6
540.9  7184.45
540.8  7151.775
540.7  7141.475
540.6  7140.425
540.5  7124.4
540.4  7082.325
540.3  7091.9
540.2  7078.8
540.1  7052.8
540  7043.75
539.9  7010.55
539.8  7018.9
539.7  7022.25
539.6  6990.725
539.5  6996.95
539.4  6979.5
539.3  6977.05
539.2  6970.525
539.1  6958.9
539  6952.45
538.9  6976.2
538.8  6939.5
538.7  6936.85
538.6  6922.25
538.5  6918.275
538.4  6933.35
538.3  6936.9
538.2  6920.55
538.1  6912.325
538  6909.475
537.9  6913.925
537.8  6926.775
537.7  6915.6
537.6  6900.975
537.5  6881.15
537.4  6927.1
537.3  6882.95
537.2  6878.2
537.1  6899.425
537  6881.2
536.9  6883.85
536.8  6877.95
536.7  6865.35
536.6  6867.825
536.5  6871.675
536.4  6873.925
536.3  6882.55
536.2  6890.25
536.1  6881.675
536  6864.475
535.9  6876.6
535.8  6871.375
535.7  6880.35
535.6  6881.75
535.5  6889.525
535.4  6877.175
535.3  6880.675
535.2  6916.675
535.1  6901
535  6883.525
534.9  6929.95
534.8  6952.175
534.7  6973.625
534.6  6994.275
534.5  6986.25
534.4  7024.675
534.3  7039.375
534.2  7063.275
534.1  7032.75
534  7087.95
533.9  7091.625
533.8  7091.025
533.7  7115.775
533.6  7124.525
533.5  7115.6
533.4  7109.1
533.3  7082.425
533.2  7067.9
533.1  7076.15
533  7074.675
532.9  7037.775
532.8  6965.175
532.7  6980.7
532.6  6932.525
532.5  6867.35
532.4  6860.05
532.3  6818.275
532.2  6782.7
532.1  6748
532  6743.425
531.9  6681.025
531.8  6672.9
531.7  6628.65
531.6  6650.425
531.5  6578.775
531.4  6597.825
531.3  6567.175
531.2  6545.825
531.1  6542.775
531  6534.425
530.9  6522.85
530.8  6491.7
530.7  6521
530.6  6510.725
530.5  6487.05
530.4  6474.625
530.3  6468.25
530.2  6448.1
530.1  6460.15
530  6477.475
529.9  6481.85
529.8  6457.55
529.7  6441.2
529.6  6441.125
529.5  6431.75
529.4  6431.175
529.3  6432.55
529.2  6459.025
529.1  6396.65
529  6449.775
528.9  6412.475
528.8  6423.7
528.7  6432.625
528.6  6410.275
528.5  6430.7
528.4  6421
528.3  6411.85
528.2  6418.25
528.1  6442
528  6434.275
527.9  6401.05
527.8  6401.575
527.7  6368.275
527.6  6373.85
527.5  6386.175
527.4  6410.125
527.3  6388.275
527.2  6403.5
527.1  6410.65
527  6404.775
526.9  6388.65
526.8  6400.95
526.7  6400.725
526.6  6394.9
526.5  6395.525
526.4  6377.025
526.3  6413.15
526.2  6381.425
526.1  6380.375
526  6385.025
525.9  6382.725
525.8  6398.475
525.7  6354.45
525.6  6380.175
525.5  6367.6
525.4  6374.2
525.3  6390.425
525.2  6376.175
525.1  6370.55
525  6385.2

# Region:            C 1s
# Acquisition Date:  11/05/21 02:50:29 UTC
# Analysis Method:   XPS
# Analyzer:          Phoibos 100 R6
# Analyzer Lens:     LargeArea:1.5kV
# Analyzer Slit:     1:0.2x20\B:open
# Scan Mode:         FixedAnalyzerTransmission
# Curves/Scan:       1
# Values/Curve:      151
# Dwell Time:        0.8
# Excitation Energy: 1486.61
# Binding Energy:    295
# Pass Energy:       30
# Bias Voltage:      90
# Detector Voltage:  2600
# Eff. Workfunction: 4.309
# Source:            X-Ray Dummy
# Comment:           
#
# Cycle: 0
# Number of Scans: 70
#
# Cycle: 0, Curve: 0
# Acquisition Date: 11/05/21 02:50:29 UTC
#
# ColumnLabels: energy counts/s
#
295  3947.3929
294.9  3949.9643
294.8  3934.6071
294.7  3953.5536
294.6  3919.8929
294.5  3942.25
294.4  3922.5
294.3  3939.3036
294.2  3940.7857
294.1  3941.2321
294  3925.9464
293.9  3934.1786
293.8  3964.5179
293.7  3944.8929
293.6  3937.1607
293.5  3947.9464
293.4  3938.6429
293.3  3949.8214
293.2  3947.4643
293.1  3940.6429
293  3942.3929
292.9  3954.8036
292.8  3934.4643
292.7  3940.1607
292.6  3939.6429
292.5  3959.0893
292.4  3925.4286
292.3  3937.75
292.2  3947.0893
292.1  3943.6071
292  3943.3214
291.9  3949.4107
291.8  3966.4643
291.7  3962.5714
291.6  3950.5536
291.5  3965.2857
291.4  3970.4107
291.3  3974.4643
291.2  3963.8036
291.1  3963.1429
291  3982.5
290.9  3960
290.8  3958.4464
290.7  3972.8036
290.6  3965.4821
290.5  3975.1964
290.4  3954.0893
290.3  3967.6071
290.2  3977.4821
290.1  3969.6786
290  3990.25
289.9  3997.625
289.8  3985.9821
289.7  3999.6071
289.6  3988.8214
289.5  3985.5357
289.4  4005
289.3  4012.0536
289.2  4033.6071
289.1  4024.125
289  3999.7857
288.9  4009.5714
288.8  4030.0893
288.7  4003.6786
288.6  4056.4643
288.5  4075.9821
288.4  4093.0179
288.3  4074
288.2  4129.2321
288.1  4141.3571
288  4145.9643
287.9  4166.375
287.8  4182.8036
287.7  4222.8036
287.6  4222.7679
287.5  4246.7143
287.4  4259.8929
287.3  4285.6607
287.2  4316.9286
287.1  4349.4821
287  4369.3929
286.9  4374.2143
286.8  4410.4643
286.7  4432.3571
286.6  4476.4821
286.5  4471.9643
286.4  4518.7679
286.3  4515.2679
286.2  4543.0714
286.1  4567.6964
286  4570.5179
285.9  4579.8571
285.8  4590.9286
285.7  4606.1964
285.6  4626.6964
285.5  4638.7321
285.4  4617.6964
285.3  4620.5536
285.2  4612.2321
285.1  4608.0536
285  4562.7321
284.9  4551.5179
284.8  4542.5536
284.7  4491.375
284.6  4444.5714
284.5  4422.875
284.4  4384.1071
284.3  4325.5
284.2  4314.1071
284.1  4277.4821
284  4231.2679
283.9  4191.0179
283.8  4176.2857
283.7  4156.2857
283.6  4111.9464
283.5  4071.2321
283.4  4056.3214
283.3  4037.3036
283.2  4020.1071
283.1  4017.8571
283  3990.1429
282.9  3978.9464
282.8  3966.5179
282.7  3969.3036
282.6  3967.75
282.5  3953.8571
282.4  3950.6429
282.3  3959.1607
282.2  3950.75
282.1  3932.1071
282  3954.6964
281.9  3943.4464
281.8  3924.5
281.7  3934.0893
281.6  3930.5893
281.5  3927.9107
281.4  3909.4821
281.3  3918.4286
281.2  3927.8929
281.1  3928.875
281  3924.1786
280.9  3926.0714
280.8  3921.7321
280.7  3904.125
280.6  3912.6429
280.5  3913.0357
280.4  3918.6071
280.3  3895.2679
280.2  3899.6429
280.1  3901.1786
280  3898.2679

# Region:            N 1s
# Acquisition Date:  11/05/21 08:46:51 UTC
# Analysis Method:   XPS
# Analyzer:          Phoibos 100 R6
# Analyzer Lens:     LargeArea:1.5kV
# Analyzer Slit:     1:0.2x20\B:open
# Scan Mode:         FixedAnalyzerTransmission
# Curves/Scan:       1
# Values/Curve:      101
# Dwell Time:        0.8
# Excitation Energy: 1486.61
# Binding Energy:    405
# Pass Energy:       30
# Bias Voltage:      90
# Detector Voltage:  2600
# Eff. Workfunction: 4.309
# Source:            X-Ray Dummy
# Comment:           
#
# Cycle: 0
# Number of Scans: 250
#
# Cycle: 0, Curve: 0
# Acquisition Date: 11/05/21 08:46:51 UTC
#
# ColumnLabels: energy counts/s
#
405  6884.37
404.9  6890.63
404.8  6887.465
404.7  6895.83
404.6  6899.79
404.5  6899.31
404.4  6903.135
404.3  6884.72
404.2  6913.22
404.1  6884.605
404  6898.595
403.9  6912.575
403.8  6901.135
403.7  6923.4
403.6  6906.935
403.5  6912.005
403.4  6912.385
403.3  6913.02
403.2  6919.625
403.1  6918.975
403  6929.61
402.9  6926.84
402.8  6936.345
402.7  6937.555
402.6  6939.665
402.5  6945.045
402.4  6943.24
402.3  6945.93
402.2  6961.655
402.1  6952.365
402  6968.93
401.9  6975.87
401.8  6977.11
401.7  6977.35
401.6  6978.18
401.5  6990.205
401.4  6989.92
401.3  6997.185
401.2  6998.45
401.1  7001.155
401  7002.35
400.9  7021.315
400.8  7022.015
400.7  7020.605
400.6  7022.795
400.5  7037.48
400.4  7030.67
400.3  7046.045
400.2  7041.43
400.1  7027.355
400  7035.87
399.9  7042.77
399.8  7033.965
399.7  7043.56
399.6  7038.385
399.5  7026.5
399.4  7040.885
399.3  7023.43
399.2  7034.07
399.1  7035.055
399  7024.56
398.9  7014.83
398.8  7012.32
398.7  7022.73
398.6  7011.705
398.5  7007.285
398.4  7008.43
398.3  7010.4
398.2  7004.21
398.1  7003.465
398  7001.29
397.9  6990.66
397.8  6988.075
397.7  6988.485
397.6  6994.74
397.5  6979.43
397.4  6981.61
397.3  6991.895
397.2  6977.9
397.1  6994.88
397  6986.15
396.9  6990.7
396.8  6970.885
396.7  6989.125
396.6  6993.915
396.5  6988.725
396.4  6985.505
396.3  6997.39
396.2  6997.81
396.1  6988.46
396  7001.72
395.9  6993.95
395.8  6994.58
395.7  6994.11
395.6  6999.53
395.5  7008.16
395.4  7005.73
395.3  7007.485
395.2  6998.815
395.1  7013.845
395  7015.12

# Region:            Cl 2p
# Acquisition Date:  11/05/21 09:27:15 UTC
# Analysis Method:   XPS
# Analyzer:          Phoibos 100 R6
# Analyzer Lens:     LargeArea:1.5kV
# Analyzer Slit:     1:0.2x20\B:open
# Scan Mode:         FixedAnalyzerTransmission
# Curves/Scan:       1
# Values/Curve:      91
# Dwell Time:        0.8
# Excitation Energy: 1486.61
# Binding Energy:    204
# Pass Energy:       30
# Bias Voltage:      90
# Detector Voltage:  2600
# Eff. Workfunction: 4.309
# Source:            X-Ray Dummy
# Comment:           
#
# Cycle: 0
# Number of Scans: 60
#
# Cycle: 0, Curve: 0
# Acquisition Date: 11/05/21 09:27:15 UTC
#
# ColumnLabels: energy counts/s
#
204  3950.1875
203.9  3957.125
203.8  3948.375
203.7  3952.375
203.6  3948.5417
203.5  3958.9583
203.4  3933.9375
203.3  3947.4792
203.2  3928.125
203.1  3953.9375
203  3948.1042
202.9  3946.7917
202.8  3956.3958
202.7  3968.2708
202.6  3949.2083
202.5  3946.2708
202.4  3976.2292
202.3  3946.7917
202.2  3956.3125
202.1  3943
202  3969.625
201.9  3953.625
201.8  3962.8125
201.7  3951.1458
201.6  3973.5208
201.5  3959.3125
201.4  3955.6458
201.3  3967.2083
201.2  3968.7083
201.1  3983.1042
201  3961.5417
200.9  3955.3333
200.8  3983.8333
200.7  3988.7917
200.6  3977.0417
200.5  3972.5833
200.4  3994.8125
200.3  3980.1667
200.2  3974.125
200.1  4005.2708
200  3971.4375
199.9  3968.7083
199.8  3992
199.7  3975.2917
199.6  3979.9375
199.5  3987.75
199.4  3964.5208
199.3  3984.8125
199.2  3984.1875
199.1  3950.1042
199  4000.5833
198.9  3989.6042
198.8  3988.9583
198.7  3980.625
198.6  3999.9792
198.5  3987.7917
198.4  3980.0625
198.3  3976.3125
198.2  4000.3333
198.1  3985.0417
198  3982.2083
197.9  3990.9167
197.8  3978.0833
197.7  3999.125
197.6  4001.0208
197.5  3994.9375
197.4  3976.5417
197.3  4002.3958
197.2  3990.5833
197.1  4001.9583
197  3983.5417
196.9  3989.2292
196.8  4004.75
196.7  3969.0833
196.6  4003.5417
196.5  3996.9583
196.4  3989.5
196.3  3978.6667
196.2  3979.5625
196.1  3978.0625
196  3982.5
195.9  3981.1458
195.8  3987.8333
195.7  3982.9167
195.6  3985.2708
195.5  3992.6875
195.4  4001.3542
195.3  4003.4375
195.2  3988.6875
195.1  3987.8333
195  3985.5625

# Region:            Au 4f
# Acquisition Date:  11/04/21 16:00:34 UTC
# Analysis Method:   XPS
# Analyzer:          Phoibos 100 R6
# Analyzer Lens:     LargeArea:1.5kV
# Analyzer Slit:     1:0.2x20\B:open
# Scan Mode:         FixedAnalyzerTransmission
# Curves/Scan:       1
# Values/Curve:      151
# Dwell Time:        0.8
# Excitation Energy: 1486.61
# Binding Energy:    95
# Pass Energy:       30
# Bias Voltage:      90
# Detector Voltage:  2600
# Eff. Workfunction: 4.309
# Source:            X-Ray Dummy
# Comment:           
#
# Cycle: 0
# Number of Scans: 2
#
# Cycle: 0, Curve: 0
# Acquisition Date: 11/04/21 16:00:34 UTC
#
# ColumnLabels: energy counts/s
#
95  4411.25
94.9  4468.75
94.8  4381.875
94.7  4470
94.6  4436.25
94.5  4412.5
94.4  4411.875
94.3  4387.5
94.2  4406.875
94.1  4438.125
94  4435
93.9  4397.5
93.8  4426.875
93.7  4427.5
93.6  4459.375
93.5  4440.625
93.4  4501.875
93.3  4467.5
93.2  4493.75
93.1  4426.25
93  4478.125
92.9  4414.375
92.8  4581.875
92.7  4451.875
92.6  4411.875
92.5  4553.75
92.4  4370.625
92.3  4475.625
92.2  4502.5
92.1  4598.125
92  4551.25
91.9  4594.375
91.8  4492.5
91.7  4675
91.6  4676.25
91.5  4670
91.4  4696.25
91.3  4818.75
91.2  4803.75
91.1  4755
91  4908.75
90.9  4915.625
90.8  4957.5
90.7  5036.25
90.6  5091.875
90.5  5035.625
90.4  5143.75
90.3  5171.875
90.2  5373.125
90.1  5340
90  5489.375
89.9  5633.125
89.8  5939.375
89.7  6153.125
89.6  6289.375
89.5  6833.75
89.4  7036.875
89.3  7725.625
89.2  8091.25
89.1  8830.625
89  9574.375
88.9  10290
88.8  11143.75
88.7  12227.5
88.6  13219.375
88.5  14124.375
88.4  14932.5
88.3  15909.375
88.2  16791.25
88.1  17345
88  17399.375
87.9  17672.5
87.8  17374.375
87.7  17016.875
87.6  16279.375
87.5  15598.75
87.4  14414.375
87.3  13443.125
87.2  12272.5
87.1  11105.625
87  10093.75
86.9  9299.375
86.8  8405.625
86.7  7848.125
86.6  7221.25
86.5  6726.875
86.4  6657.5
86.3  6559.375
86.2  6509.375
86.1  6566.875
86  6707.5
85.9  6996.875
85.8  7146.875
85.7  7738.125
85.6  8240
85.5  9005.625
85.4  9819.375
85.3  10535.625
85.2  11504.375
85.1  12608.125
85  13916.875
84.9  15356.25
84.8  16230.625
84.7  17542.5
84.6  18750
84.5  19683.75
84.4  20433.75
84.3  20398.125
84.2  20263.75
84.1  19918.125
84  19348.125
83.9  18156.25
83.8  17086.875
83.7  15500
83.6  14266.25
83.5  12638.75
83.4  11191.25
83.3  9832.5
83.2  8727.5
83.1  7628.125
83  6702.5
82.9  5929.375
82.8  5398.125
82.7  4968.125
82.6  4513.125
82.5  4173.75
82.4  3970.625
82.3  3793.75
82.2  3769.375
82.1  3528.75
82  3441.25
81.9  3382.5
81.8  3226.875
81.7  3205
81.6  3102.5
81.5  3043.125
81.4  2955
81.3  2924.375
81.2  2960
81.1  2875
81  2869.375
80.9  2878.75
80.8  2848.75
80.7  2817.5
80.6  2718.125
80.5  2698.125
80.4  2750.625
80.3  2738.75
80.2  2731.25
80.1  2735
80  2751.25

# Region:            overview
# Acquisition Date:  11/04/21 15:46:56 UTC
# Analysis Method:   XPS
# Analyzer:          Phoibos 100 R6
# Analyzer Lens:     MediumArea:1.5kV
# Analyzer Slit:     1:0.2x20\B:open
# Scan Mode:         FixedAnalyzerTransmission
# Curves/Scan:       1
# Values/Curve:      1205
# Dwell Time:        0.2
# Excitation Energy: 1486.61
# Binding Energy:    1200
# Pass Energy:       50
# Bias Voltage:      90
# Detector Voltage:  2600
# Eff. Workfunction: 4.309
# Source:            X-Ray Dummy
# Comment:           
#
# Cycle: 0
# Number of Scans: 1
#
# Cycle: 0, Curve: 0
# Acquisition Date: 11/04/21 15:46:56 UTC
#
# ColumnLabels: energy counts/s
#
1200  12050
1199  11990
1198  11255
1197  11955
1196  12165
1195  11390
1194  11195
1193  11625
1192  11125
1191  11215
1190  11510
1189  11730
1188  11080
1187  10855
1186  11530
1185  11185
1184  11080
1183  11000
1182  11035
1181  11250
1180  10985
1179  10740
1178  10755
1177  10550
1176  10705
1175  10895
1174  10940
1173  10635
1172  11070
1171  10370
1170  10555
1169  10880
1168  10565
1167  10425
1166  10795
1165  10340
1164  10380
1163  10215
1162  10300
1161  10260
1160  10830
1159  10025
1158  10360
1157  10255
1156  10310
1155  10230
1154  10220
1153  10185
1152  10120
1151  9675
1150  9960
1149  9720
1148  9855
1147  10285
1146  9630
1145  9920
1144  9940
1143  9750
1142  9810
1141  9835
1140  9595
1139  9700
1138  9695
1137  9495
1136  10045
1135  9550
1134  9310
1133  9450
1132  9785
1131  9655
1130  9550
1129  9320
1128  9555
1127  9370
1126  9825
1125  9160
1124  9255
1123  9250
1122  9375
1121  9190
1120  8790
1119  9215
1118  8820
1117  8820
1116  9405
1115  8935
1114  9415
1113  8845
1112  8990
1111  8825
1110  9280
1109  8885
1108  9060
1107  9185
1106  8910
1105  8360
1104  8650
1103  8845
1102  9030
1101  8855
1100  8755
1099  8725
1098  8745
1097  8380
1096  8855
1095  8370
1094  8775
1093  9010
1092  8750
1091  8660
1090  8500
1089  8600
1088  8405
1087  8620
1086  8025
1085  8550
1084  8620
1083  8435
1082  8240
1081  8355
1080  8130
1079  8130
1078  8180
1077  8130
1076  7990
1075  7985
1074  8215
1073  7980
1072  8150
1071  7920
1070  8205
1069  8020
1068  7815
1067  8465
1066  7930
1065  8500
1064  8285
1063  8155
1062  8085
1061  8060
1060  7710
1059  7975
1058  7820
1057  8050
1056  8015
1055  7765
1054  7650
1053  7660
1052  7840
1051  7860
1050  7875
1049  7830
1048  7720
1047  8300
1046  7625
1045  7485
1044  7845
1043  7400
1042  7645
1041  7595
1040  7535
1039  7755
1038  7535
1037  7525
1036  7730
1035  7665
1034  7995
1033  7515
1032  7685
1031  7645
1030  7260
1029  7105
1028  7715
1027  7375
1026  7585
1025  7535
1024  7945
1023  7530
1022  7240
1021  7380
1020  7485
1019  7100
1018  7125
1017  7745
1016  7615
1015  7250
1014  7530
1013  7865
1012  7365
1011  7175
1010  7635
1009  7225
1008  6950
1007  7110
1006  7500
1005  7360
1004  7430
1003  7080
1002  7240
1001  7425
1000  7025
999  6930
998  7375
997  7085
996  7310
995  7030
994  7455
993  7270
992  7070
991  6975
990  7450
989  7100
988  7490
987  7405
986  7130
985  6980
984  7505
983  7230
982  7290
981  7160
980  7020
979  7320
978  6850
977  7295
976  7385
975  6890
974  7285
973  7190
972  7230
971  7165
970  6820
969  7585
968  7275
967  6730
966  6775
965  7320
964  7110
963  6910
962  7110
961  7165
960  6925
959  7035
958  7120
957  6690
956  7135
955  7030
954  6585
953  6990
952  6995
951  7025
950  6905
949  6990
948  6575
947  7160
946  7195
945  6870
944  6940
943  7040
942  7060
941  7065
940  7045
939  6820
938  7035
937  6930
936  6820
935  6575
934  7195
933  6855
932  6775
931  6915
930  6870
929  6805
928  6890
927  7035
926  6945
925  6765
924  7130
923  6935
922  6955
921  7050
920  6830
919  6530
918  6790
917  6505
916  6730
915  6875
914  6675
913  6615
912  6905
911  6950
910  6855
909  6905
908  7175
907  7030
906  6825
905  6950
904  6840
903  6775
902  6765
901  6840
900  6985
899  6780
898  6930
897  6545
896  6770
895  6610
894  6805
893  6855
892  6510
891  6910
890  6820
889  6960
888  6945
887  6720
886  6790
885  6860
884  6755
883  6585
882  6745
881  6990
880  7070
879  6915
878  6650
877  6655
876  6990
875  6685
874  6840
873  6950
872  6820
871  6440
870  6910
869  6790
868  6695
867  6800
866  6710
865  6890
864  6670
863  6840
862  7115
861  6925
860  6545
859  6860
858  6940
857  7135
856  6760
855  6910
854  6680
853  6950
852  6630
851  6610
850  7090
849  6740
848  6820
847  6770
846  6575
845  7085
844  6635
843  6685
842  6740
841  6900
840  6710
839  6805
838  6965
837  6805
836  7020
835  7045
834  6715
833  6735
832  7095
831  7045
830  6995
829  6595
828  6935
827  6820
826  6960
825  7060
824  6945
823  6605
822  6655
821  7130
820  7110
819  7125
818  6630
817  6710
816  7055
815  6970
814  7415
813  6840
812  7000
811  7065
810  6945
809  7105
808  7235
807  7075
806  6760
805  7010
804  7065
803  6960
802  7410
801  7115
800  7315
799  6850
798  7010
797  7290
796  7090
795  7170
794  7100
793  7375
792  7030
791  7005
790  7275
789  6945
788  7335
787  7020
786  7030
785  7375
784  6940
783  7110
782  6730
781  7505
780  6975
779  7110
778  7335
777  7010
776  7115
775  6905
774  7080
773  7050
772  7375
771  6980
770  7060
769  7035
768  7195
767  7120
766  6975
765  7545
764  7550
763  7735
762  7340
761  7690
760  7380
759  7370
758  6840
757  7130
756  6935
755  6975
754  7175
753  6860
752  6785
751  6910
750  6855
749  6955
748  7290
747  6885
746  7295
745  6755
744  6980
743  6970
742  7035
741  7375
740  6700
739  6845
738  6825
737  6975
736  6790
735  7095
734  6845
733  6770
732  7050
731  6925
730  7105
729  7445
728  6985
727  7140
726  6885
725  7020
724  7220
723  7125
722  7090
721  6865
720  7345
719  7140
718  6860
717  7095
716  6865
715  7105
714  7300
713  6765
712  7230
711  7315
710  7205
709  7555
708  7300
707  7120
706  6965
705  7270
704  7010
703  6760
702  7250
701  7105
700  7285
699  7105
698  7115
697  7025
696  6940
695  7065
694  7035
693  6890
692  7085
691  7380
690  7005
689  7190
688  7320
687  7255
686  7290
685  7350
684  7250
683  7185
682  7305
681  7185
680  7060
679  7295
678  7485
677  7375
676  7395
675  7425
674  7450
673  7330
672  7700
671  7435
670  7415
669  7630
668  7765
667  7860
666  7265
665  7510
664  7240
663  7355
662  7795
661  7315
660  7535
659  7470
658  7275
657  7540
656  7340
655  7800
654  7675
653  7495
652  7860
651  7800
650  7740
649  8030
648  7915
647  8030
646  7805
645  7910
644  8190
643  8370
642  8080
641  7905
640  8515
639  7475
638  7985
637  7985
636  7555
635  7600
634  7515
633  7540
632  7825
631  7885
630  7630
629  7665
628  7770
627  7660
626  7580
625  7340
624  7465
623  7440
622  7560
621  7585
620  7500
619  7630
618  7480
617  7540
616  7610
615  7720
614  7755
613  7745
612  7935
611  7835
610  7545
609  7565
608  7740
607  8035
606  7760
605  7965
604  7995
603  7540
602  7300
601  7735
600  7645
599  7470
598  7720
597  8130
596  8060
595  7765
594  7575
593  7940
592  7845
591  7900
590  8010
589  7875
588  8050
587  7925
586  7920
585  7780
584  8095
583  7905
582  7960
581  8095
580  8165
579  7855
578  7950
577  7940
576  7985
575  8340
574  8575
573  8400
572  8355
571  8340
570  8310
569  8445
568  8420
567  8865
566  8150
565  8525
564  8245
563  8235
562  8435
561  7745
560  8515
559  8335
558  8045
557  8165
556  8250
555  8620
554  8375
553  8685
552  9175
551  8730
550  9315
549  9540
548  10235
547  10790
546  11050
545  10185
544  9795
543  9210
542  8790
541  8320
540  8290
539  7905
538  7860
537  7940
536  8205
535  8170
534  7905
533  8070
532  7905
531  7860
530  7680
529  7385
528  7740
527  7190
526  7350
525  7295
524  7530
523  7500
522  7015
521  7585
520  7435
519  7690
518  7640
517  7465
516  7390
515  7425
514  7825
513  7410
512  7550
511  7225
510  7630
509  7780
508  7480
507  7690
506  7530
505  7655
504  7815
503  7425
502  7535
501  7650
500  7720
499  7940
498  7765
497  7970
496  7745
495  7765
494  7420
493  7880
492  7780
491  7555
490  7795
489  7380
488  7625
487  7690
486  8035
485  7775
484  7915
483  7850
482  8045
481  8290
480  7900
479  7835
478  7880
477  7945
476  7775
475  8125
474  8255
473  8310
472  7990
471  8130
470  8040
469  8045
468  7835
467  8135
466  7820
465  8140
464  7910
463  7455
462  7895
461  8150
460  8100
459  8095
458  8175
457  8310
456  8460
455  8340
454  8030
453  8115
452  8325
451  8205
450  7750
449  8140
448  8135
447  8320
446  8445
445  8140
444  8070
443  8155
442  7980
441  8455
440  8220
439  8405
438  8360
437  8765
436  8305
435  8630
434  8435
433  8500
432  8845
431  8705
430  8525
429  9015
428  8735
427  8200
426  8585
425  8710
424  8815
423  9115
422  8645
421  8915
420  8800
419  8880
418  8750
417  8685
416  8860
415  8925
414  8785
413  8920
412  9205
411  9030
410  8840
409  8920
408  9185
407  8755
406  9100
405  8930
404  9130
403  8945
402  9015
401  9235
400  9220
399  9545
398  9175
397  9480
396  9420
395  9590
394  9095
393  9995
392  9755
391  9330
390  9400
389  9755
388  9460
387  9655
386  9650
385  9705
384  9535
383  9755
382  10390
381  9460
380  9580
379  9905
378  9535
377  9515
376  9505
375  9780
374  9680
373  9995
372  10195
371  10185
370  9645
369  10010
368  10030
367  10015
366  10195
365  9910
364  9745
363  10025
362  10065
361  10255
360  10765
359  10910
358  10980
357  11620
356  12600
355  13580
354  14970
353  15275
352  13760
351  12175
350  11060
349  10465
348  9715
347  9815
346  9375
345  8870
344  10170
343  9390
342  9440
341  10005
340  10170
339  10730
338  12495
337  13995
336  15650
335  16525
334  14210
333  11825
332  9735
331  8515
330  8155
329  7425
328  7350
327  7230
326  7355
325  7085
324  7160
323  6635
322  6155
321  6160
320  5735
319  5945
318  5785
317  6400
316  5775
315  5705
314  5705
313  5680
312  5730
311  5890
310  5305
309  5425
308  5570
307  5720
306  5470
305  5195
304  5455
303  5545
302  5510
301  5285
300  5360
299  5390
298  5465
297  5710
296  5275
295  5575
294  5575
293  5535
292  5675
291  5445
290  5310
289  5570
288  5730
287  6120
286  6380
285  6365
284  6145
283  5595
282  5300
281  5415
280  5585
279  5535
278  5795
277  5325
276  5465
275  5475
274  5705
273  5425
272  5250
271  5250
270  5575
269  5570
268  5870
267  5740
266  5745
265  5605
264  5410
263  5325
262  5445
261  5400
260  5315
259  5250
258  5610
257  5765
256  5570
255  5330
254  5590
253  5605
252  5460
251  5415
250  5380
249  5475
248  5310
247  5410
246  5380
245  5660
244  5555
243  5845
242  5450
241  5585
240  5430
239  5500
238  5430
237  5605
236  5700
235  5660
234  5520
233  5655
232  5630
231  5565
230  5375
229  5735
228  5510
227  5545
226  5770
225  5605
224  5875
223  5740
222  5580
221  5610
220  5795
219  5540
218  5665
217  5640
216  5710
215  5595
214  5860
213  5680
212  5920
211  5650
210  5785
209  5610
208  5720
207  6070
206  5780
205  6210
204  5945
203  5610
202  6045
201  6080
200  5750
199  5910
198  6070
197  5920
196  6350
195  5780
194  5590
193  6465
192  6125
191  6015
190  5760
189  5765
188  6170
187  6155
186  5825
185  6080
184  6410
183  5800
182  6060
181  6170
180  6315
179  6005
178  6270
177  6340
176  5980
175  6085
174  6225
173  6700
172  6405
171  5995
170  6410
169  6340
168  6030
167  5980
166  6515
165  6150
164  6325
163  6400
162  6470
161  6590
160  6250
159  6165
158  6450
157  6115
156  6810
155  6405
154  6270
153  6500
152  6580
151  6130
150  6650
149  6535
148  6375
147  6575
146  6405
145  6465
144  6800
143  6710
142  6585
141  6465
140  6665
139  6745
138  6865
137  6725
136  6860
135  6590
134  6765
133  7070
132  7055
131  7170
130  6610
129  6665
128  7050
127  6985
126  7280
125  7040
124  6710
123  7285
122  7195
121  7085
120  7375
119  7510
118  7250
117  7420
116  7540
115  7490
114  7545
113  7510
112  7535
111  7605
110  7855
109  7510
108  7515
107  7250
106  7360
105  7225
104  7055
103  7385
102  7205
101  7200
100  7150
99  6810
98  7190
97  6995
96  6645
95  7210
94  6970
93  7000
92  6730
91  7580
90  8685
89  15605
88  23630
87  17940
86  11455
85  21610
84  26005
83  13720
82  5895
81  4445
80  4640
79  4575
78  5070
77  4585
76  4525
75  5165
74  5395
73  4510
72  4200
71  3600
70  3525
69  2950
68  2845
67  3195
66  3030
65  3140
64  3345
63  3205
62  3135
61  3240
60  3500
59  3400
58  3580
57  3485
56  3320
55  3295
54  3250
53  3055
52  3055
51  2860
50  2920
49  2805
48  2735
47  2705
46  2625
45  2625
44  2770
43  2625
42  2790
41  2505
40  2625
39  2620
38  2445
37  2765
36  2555
35  2495
34  2540
33  2620
32  2495
31  2730
30  2620
29  2670
28  2655
27  2550
26  2270
25  2650
24  2530
23  2405
22  2630
21  2630
20  2835
19  2715
18  2755
17  2860
16  2685
15  2670
14  2580
13  2825
12  2640
11  2590
10  2500
9  2860
8  3320
7  4010
6  4250
5  4315
4  4485
3  4230
2  3330
1  2505
-2.2737368e-013  2180
-1  2045
-2  2245
-3  2215
-4  2135

