# Created by:        SpecsLab Prodigy, Version 4.60.2-r85849 
#
# XY-Serializer Export Settings:
#   Comment Prefix:           #
#   Output meta data:         yes
#   Energy Axis:              Binding Energy
#   Count Rate:               Counts per Second
#   Separate Scan Data:       no
#   Separate Channel Data:    no
#   External Channel Data:    yes
#   Transmission Function:    no
#   ErrorBar:                 no
#   Operation Results:        yes
#   Time Zone Format:         UTC
#
# Group:             20210507_Au111_clean
#
# Region:            O 1s (2)
# Acquisition Date:  11/04/21 14:22:44 UTC
# Analysis Method:   XPS
# Analyzer:          Phoibos 100 R6
# Analyzer Lens:     LargeArea:1.5kV
# Analyzer Slit:     1:0.2x20\B:open
# Scan Mode:         FixedAnalyzerTransmission
# Curves/Scan:       1
# Values/Curve:      61
# Dwell Time:        0.8
# Excitation Energy: 1486.61
# Binding Energy:    536
# Pass Energy:       30
# Bias Voltage:      90
# Detector Voltage:  2600
# Eff. Workfunction: 4.309
# Source:            X-Ray Dummy
# Comment:           
#
# Cycle: 0
# Number of Scans: 40
#
# Cycle: 0, Curve: 0
# Acquisition Date: 11/04/21 14:22:44 UTC
#
# ColumnLabels: energy counts/s
#
536  7014.125
535.9  7028.0625
535.8  7027.9375
535.7  7001.75
535.6  7006.8125
535.5  6997.375
535.4  6988.2188
535.3  6998.3438
535.2  7000
535.1  7036.7813
535  7022.5
534.9  7041.6563
534.8  7041.9688
534.7  7094.5938
534.6  7070.4063
534.5  7100.625
534.4  7104.9688
534.3  7130.7813
534.2  7170.6875
534.1  7180.9688
534  7197.8438
533.9  7210.6875
533.8  7248.6875
533.7  7271.5
533.6  7301.5625
533.5  7314.3438
533.4  7307.9375
533.3  7331.5938
533.2  7343.4063
533.1  7334.3438
533  7316.9688
532.9  7301.4688
532.8  7284.625
532.7  7232.6875
532.6  7210.75
532.5  7183.8125
532.4  7131.0625
532.3  7067.5313
532.2  7035.75
532.1  6952.875
532  6970.4375
531.9  6916.4375
531.8  6872.0313
531.7  6849.0625
531.6  6820.4375
531.5  6789.0938
531.4  6728.8125
531.3  6717.1563
531.2  6713.7188
531.1  6693.2813
531  6673.7813
530.9  6670.0938
530.8  6664.7188
530.7  6643.3125
530.6  6631
530.5  6637.1563
530.4  6620.4063
530.3  6637.875
530.2  6633.5
530.1  6631.6875
530  6594.9688

# Operation:         Peak Fit
# Parameter: "Transition" = 
# Parameter: "Label" = 
# Parameter: "Background Method" = Tougaard
# Parameter: "Peak Shape" = Voigt
# Parameter: "Asymmetric Peak" = false
# Parameter: "FWHM-Annotation" = S-B = <Signal-BG:@>\nFWHM = <FWHM:@>\nArea = <Area:@>
# Parameter: "Peak-Annotation" = <Label>\n<Transition>\nE = <Center:@>
#
# Result:
# Number of Results: 2
# Parameter: "Transition" = 
# Parameter: "Label" = 
# Parameter: "Center" = 533.17632274179664 eV +- 0.010350415760285614
# Parameter: "Area" = 2365.6588648514357 cps eV +- 287.32683759745669
# Parameter: "FWHM Lorentzian" = 1.2691843511534862 eV +- 0.45522870849359248
# Parameter: "FWHM Gaussian" = 1.7591368295482464 eV +- 0.27310446228771001
# Parameter: "Asymmetry" = 0 +- 0
# Parameter: "Tougaard B" = 174002.06164259315 eV^2 +- 12826.516843172607
# Parameter: "Tougaard C" = 1643 eV^2 +- 0
# Parameter: "FWHM" = 2.5341632235245015 eV
# Parameter: "Offset (0th order)" = 6548.6234845415947 cps +- 25.084801906893517
# Parameter: "Abbe factor" = 0.62920728882793253
# Parameter: "Reduced Chi Square" = 1.3142509757634502
# Parameter: "Q Probability" = 0.060530133381418737
# Parameter: "Number of performed iterations" = 20
# Parameter: "Fit termination reason" = ConvergedInParameter
# Parameter: "Signal" = 7331.2054191967809 cps
# Parameter: "Signal-BG" = 716.95081418356244 cps
#
# Result Name:       Background
# Number of Curves:  1
#
# Curve:             0
# Values/Curve:      49
#
536  6969.9191
535.875  6948.9585
535.75  6928.4376
535.625  6908.3477
535.5  6888.6824
535.375  6869.4377
535.25  6850.6123
535.125  6832.2083
535  6814.2313
534.875  6796.6908
534.75  6779.6007
534.625  6762.9791
534.5  6746.849
534.375  6731.2372
534.25  6716.1745
534.125  6701.6948
534  6687.8334
533.875  6674.6267
533.75  6662.1093
533.625  6650.3131
533.5  6639.2651
533.375  6628.9854
533.25  6619.4863
533.125  6610.7707
533  6602.8319
532.875  6595.6531
532.75  6589.2081
532.625  6583.4627
532.5  6578.3753
532.375  6573.8992
532.25  6569.9843
532.125  6566.5789
532  6563.6312
531.875  6561.0911
531.75  6558.911
531.625  6557.0469
531.5  6555.4587
531.375  6554.1109
531.25  6552.9719
531.125  6552.0144
531  6551.2148
530.875  6550.553
530.75  6550.0118
530.625  6549.5768
530.5  6549.2356
530.375  6548.9778
530.25  6548.7947
530.125  6548.6787
530  6548.6235

# Result Name:       Peak Fit
# Number of Curves:  1
#
# Curve:             0
# Values/Curve:      49
#
536  7042.3219
535.875  7029.6501
535.75  7018.8642
535.625  7010.2411
535.5  7004.1004
535.375  7000.7993
535.25  7000.7207
535.125  7004.2531
535  7011.761
534.875  7023.5449
534.75  7039.7922
534.625  7060.5228
534.5  7085.5328
534.375  7114.3454
534.25  7146.1757
534.125  7179.9195
534  7214.1734
533.875  7247.2893
533.75  7277.4662
533.625  7302.8708
533.5  7321.7783
533.375  7332.7173
533.25  7334.6014
533.125  7326.8301
533  7309.3461
532.875  7282.6401
532.75  7247.7022
532.625  7205.9287
532.5  7158.9938
532.375  7108.7065
532.25  7056.8676
532.125  7005.1443
532  6954.973
531.875  6907.4978
531.75  6863.5445
531.625  6823.6268
531.5  6787.9775
531.375  6756.5961
531.25  6729.3042
531.125  6705.8007
531  6685.7119
530.875  6668.6338
530.75  6654.1628
530.625  6641.918
530.5  6631.5542
530.375  6622.7681
530.25  6615.2997
530.125  6608.9298
530  6603.4765

# Region:            O 1s
# Acquisition Date:  11/04/21 12:45:45 UTC
# Analysis Method:   XPS
# Analyzer:          Phoibos 100 R6
# Analyzer Lens:     LargeArea:1.5kV
# Analyzer Slit:     1:0.2x20\B:open
# Scan Mode:         FixedAnalyzerTransmission
# Curves/Scan:       1
# Values/Curve:      351
# Dwell Time:        0.8
# Excitation Energy: 1486.61
# Binding Energy:    560
# Pass Energy:       30
# Bias Voltage:      90
# Detector Voltage:  2600
# Eff. Workfunction: 4.309
# Source:            X-Ray Dummy
# Comment:           
#
# Cycle: 0
# Number of Scans: 10
#
# Cycle: 0, Curve: 0
# Acquisition Date: 11/04/21 12:45:45 UTC
#
# ColumnLabels: energy counts/s
#
560  7505.875
559.9  7507.875
559.8  7482.5
559.7  7518.75
559.6  7508.75
559.5  7538
559.4  7477.125
559.3  7463.625
559.2  7542.375
559.1  7490.25
559  7474.875
558.9  7551.125
558.8  7492.75
558.7  7517
558.6  7519.25
558.5  7484.375
558.4  7506.125
558.3  7556.625
558.2  7522.25
558.1  7562.625
558  7509.25
557.9  7525.5
557.8  7515
557.7  7532
557.6  7513.125
557.5  7509.75
557.4  7523
557.3  7562.375
557.2  7506.375
557.1  7521.5
557  7566.75
556.9  7547.25
556.8  7514.875
556.7  7602.625
556.6  7573.625
556.5  7592.625
556.4  7555.75
556.3  7549.625
556.2  7543.875
556.1  7525.375
556  7532
555.9  7532.375
555.8  7563.625
555.7  7533.125
555.6  7537.375
555.5  7612.5
555.4  7606
555.3  7541.25
555.2  7570.25
555.1  7557
555  7581.875
554.9  7571.5
554.8  7596.375
554.7  7559.75
554.6  7606.25
554.5  7620.125
554.4  7587.375
554.3  7600.375
554.2  7626.625
554.1  7629
554  7625.25
553.9  7639.625
553.8  7673.875
553.7  7678.375
553.6  7636.375
553.5  7677.5
553.4  7693.25
553.3  7668.125
553.2  7647.875
553.1  7680.875
553  7761.25
552.9  7691.75
552.8  7744.625
552.7  7712.25
552.6  7763.625
552.5  7797.625
552.4  7873.75
552.3  7733.5
552.2  7844.25
552.1  7858.25
552  7898.625
551.9  7855.25
551.8  7898.125
551.7  7939.625
551.6  7866.875
551.5  8030.75
551.4  7966.875
551.3  8024.375
551.2  8052.375
551.1  8026.5
551  8079.875
550.9  8040.875
550.8  8103.375
550.7  8110.375
550.6  8191.25
550.5  8174.75
550.4  8264.625
550.3  8266.5
550.2  8319.375
550.1  8350.875
550  8331.25
549.9  8434
549.8  8469.75
549.7  8504
549.6  8519.375
549.5  8547.375
549.4  8606.875
549.3  8643.75
549.2  8739.875
549.1  8848.375
549  8770.25
548.9  8813.125
548.8  8933
548.7  8973
548.6  8974
548.5  9035.25
548.4  9130
548.3  9169
548.2  9210.25
548.1  9311.75
548  9308.625
547.9  9381.25
547.8  9413
547.7  9494.875
547.6  9560.625
547.5  9538.875
547.4  9643.75
547.3  9633.375
547.2  9702.25
547.1  9762.375
547  9715.875
546.9  9746
546.8  9754.5
546.7  9753.375
546.6  9731.125
546.5  9684.375
546.4  9706.375
546.3  9670.5
546.2  9667.625
546.1  9691.25
546  9652.125
545.9  9558
545.8  9525.5
545.7  9507.75
545.6  9422.875
545.5  9369.75
545.4  9257
545.3  9221.875
545.2  9213.25
545.1  9086.5
545  9038
544.9  8951.375
544.8  8887.375
544.7  8868.125
544.6  8806.75
544.5  8716.25
544.4  8673.5
544.3  8656
544.2  8508.75
544.1  8467.125
544  8442.625
543.9  8364.125
543.8  8294.625
543.7  8250.75
543.6  8194
543.5  8126.25
543.4  8098.875
543.3  8045.875
543.2  8073.625
543.1  8030.25
543  7955.375
542.9  7865.75
542.8  7859.875
542.7  7794.625
542.6  7787.25
542.5  7763.5
542.4  7725.5
542.3  7681.125
542.2  7687.5
542.1  7582
542  7595.75
541.9  7557.125
541.8  7501.5
541.7  7504.25
541.6  7473.75
541.5  7444
541.4  7445.375
541.3  7412.75
541.2  7386.75
541.1  7380.5
541  7360.5
540.9  7319.375
540.8  7293.125
540.7  7289.5
540.6  7224.625
540.5  7216.375
540.4  7216.875
540.3  7207.875
540.2  7254.75
540.1  7168.625
540  7146.875
539.9  7219.75
539.8  7170.75
539.7  7197.375
539.6  7103.75
539.5  7145.125
539.4  7123.25
539.3  7112.125
539.2  7153.75
539.1  7111.875
539  7082
538.9  7079.375
538.8  7109.75
538.7  7062.75
538.6  7050.125
538.5  7082.875
538.4  7118.5
538.3  7093
538.2  7111.875
538.1  7058.75
538  7081.125
537.9  7006.875
537.8  7082.375
537.7  7088.875
537.6  7052.125
537.5  7032.625
537.4  7006.375
537.3  7013.75
537.2  7049.375
537.1  6976.625
537  7012.5
536.9  7021
536.8  7033.25
536.7  6999.75
536.6  7051
536.5  7020.125
536.4  7027
536.3  7006.375
536.2  7047.625
536.1  6942.75
536  7056.125
535.9  7015.75
535.8  7057.875
535.7  7007.5
535.6  7000.625
535.5  6994.375
535.4  7032.875
535.3  7026.875
535.2  6962
535.1  6977.625
535  7037.5
534.9  7078
534.8  6987
534.7  7082
534.6  7056.875
534.5  7059.25
534.4  7094.375
534.3  7152.625
534.2  7154.125
534.1  7130.25
534  7192.375
533.9  7198.75
533.8  7229.375
533.7  7273.125
533.6  7244
533.5  7306.25
533.4  7383.375
533.3  7342.875
533.2  7350.375
533.1  7319
533  7368.75
532.9  7312.875
532.8  7266
532.7  7233.625
532.6  7216
532.5  7227.75
532.4  7156.875
532.3  7044.375
532.2  7004.875
532.1  7040.5
532  6941.5
531.9  6918.25
531.8  6867.125
531.7  6835.625
531.6  6811
531.5  6848.625
531.4  6749.5
531.3  6724
531.2  6666.125
531.1  6707
531  6688.5
530.9  6684.75
530.8  6712
530.7  6682.375
530.6  6669.875
530.5  6667.875
530.4  6599.625
530.3  6604.625
530.2  6612.875
530.1  6596.5
530  6559.75
529.9  6626.5
529.8  6528.625
529.7  6568.75
529.6  6562.25
529.5  6586.875
529.4  6530.5
529.3  6584.5
529.2  6528.75
529.1  6561.75
529  6571.125
528.9  6533.125
528.8  6545.75
528.7  6560.875
528.6  6548.5
528.5  6574.875
528.4  6584.875
528.3  6567.25
528.2  6545.25
528.1  6548.75
528  6540.25
527.9  6549.625
527.8  6541.875
527.7  6513.125
527.6  6497.625
527.5  6520.25
527.4  6495.375
527.3  6483.375
527.2  6529.75
527.1  6549.75
527  6546.5
526.9  6488
526.8  6492.375
526.7  6495
526.6  6491.25
526.5  6507.125
526.4  6547.5
526.3  6502.875
526.2  6562.375
526.1  6538.5
526  6544.25
525.9  6564.25
525.8  6495.375
525.7  6527
525.6  6524
525.5  6474.25
525.4  6516.75
525.3  6518.125
525.2  6507.5
525.1  6533.875
525  6553.75

# Region:            C 1s
# Acquisition Date:  11/04/21 13:32:38 UTC
# Analysis Method:   XPS
# Analyzer:          Phoibos 100 R6
# Analyzer Lens:     LargeArea:1.5kV
# Analyzer Slit:     1:0.2x20\B:open
# Scan Mode:         FixedAnalyzerTransmission
# Curves/Scan:       1
# Values/Curve:      151
# Dwell Time:        0.8
# Excitation Energy: 1486.61
# Binding Energy:    295
# Pass Energy:       30
# Bias Voltage:      90
# Detector Voltage:  2600
# Eff. Workfunction: 4.309
# Source:            X-Ray Dummy
# Comment:           
#
# Cycle: 0
# Number of Scans: 20
#
# Cycle: 0, Curve: 0
# Acquisition Date: 11/04/21 13:32:38 UTC
#
# ColumnLabels: energy counts/s
#
295  3992
294.9  3993.0625
294.8  4021.5
294.7  3995.4375
294.6  3988.5625
294.5  3989.25
294.4  3996.1875
294.3  4003.625
294.2  3966.375
294.1  4018.25
294  4006.125
293.9  4015.3125
293.8  3990.875
293.7  4002.1875
293.6  4024.4375
293.5  4023.5
293.4  4018.75
293.3  3983.125
293.2  4009.625
293.1  4017.5
293  4011.9375
292.9  4025.375
292.8  4005.3125
292.7  4019.4375
292.6  4002.875
292.5  3997.875
292.4  3994.9375
292.3  4038.75
292.2  4025.5625
292.1  4007.5625
292  4026.125
291.9  4035.875
291.8  4011.1875
291.7  4018.75
291.6  4017
291.5  3960.3125
291.4  4028.75
291.3  4025.5
291.2  4023.875
291.1  4031.8125
291  3992.4375
290.9  4047.125
290.8  4030.6875
290.7  4034.5
290.6  4029
290.5  4047.5
290.4  4053.5
290.3  4046.8125
290.2  4067.4375
290.1  4081
290  4029.8125
289.9  4039.125
289.8  4063.9375
289.7  4072.625
289.6  4060.875
289.5  4072.1875
289.4  4046.75
289.3  4093.3125
289.2  4070.125
289.1  4077
289  4043.625
288.9  4051.4375
288.8  4099.25
288.7  4072.375
288.6  4094.9375
288.5  4119.875
288.4  4134.625
288.3  4121.375
288.2  4162.5
288.1  4165.1875
288  4174.75
287.9  4203.375
287.8  4218.9375
287.7  4213.0625
287.6  4248.875
287.5  4287.8125
287.4  4292.5
287.3  4337.8125
287.2  4359.4375
287.1  4340.8125
287  4417.4375
286.9  4416.125
286.8  4443.8125
286.7  4474
286.6  4439.6875
286.5  4502.25
286.4  4492.5625
286.3  4557.75
286.2  4541.0625
286.1  4517.875
286  4571.875
285.9  4566.3125
285.8  4583.375
285.7  4619.5625
285.6  4592.625
285.5  4644.125
285.4  4635.375
285.3  4614
285.2  4668.625
285.1  4618.5
285  4618
284.9  4619.1875
284.8  4609.125
284.7  4590.9375
284.6  4566.1875
284.5  4562.6875
284.4  4487.9375
284.3  4496.1875
284.2  4439.6875
284.1  4413.5625
284  4400.5
283.9  4349.8125
283.8  4311.875
283.7  4245.375
283.6  4233.75
283.5  4207.5
283.4  4139.3125
283.3  4173.375
283.2  4122.5625
283.1  4087.1875
283  4129.875
282.9  4060.4375
282.8  4078.75
282.7  4017.9375
282.6  4047.125
282.5  4039.875
282.4  4040.8125
282.3  3993.9375
282.2  4008.3125
282.1  4041
282  4013.0625
281.9  4002.3125
281.8  4008.375
281.7  3975.125
281.6  4014.4375
281.5  4000.625
281.4  3957.375
281.3  4010.8125
281.2  4011.6875
281.1  3979.6875
281  4003.5
280.9  3975.3125
280.8  3986.4375
280.7  3955.625
280.6  3963.875
280.5  3987.1875
280.4  3969.625
280.3  3978.625
280.2  3960.875
280.1  3985.8125
280  3952.875

# Region:            N 1s
# Acquisition Date:  11/04/21 15:18:49 UTC
# Analysis Method:   XPS
# Analyzer:          Phoibos 100 R6
# Analyzer Lens:     LargeArea:1.5kV
# Analyzer Slit:     1:0.2x20\B:open
# Scan Mode:         FixedAnalyzerTransmission
# Curves/Scan:       1
# Values/Curve:      101
# Dwell Time:        0.8
# Excitation Energy: 1486.61
# Binding Energy:    405
# Pass Energy:       30
# Bias Voltage:      90
# Detector Voltage:  2600
# Eff. Workfunction: 4.309
# Source:            X-Ray Dummy
# Comment:           
#
# Cycle: 0
# Number of Scans: 80
#
# Cycle: 0, Curve: 0
# Acquisition Date: 11/04/21 15:18:49 UTC
#
# ColumnLabels: energy counts/s
#
405  7062.2656
404.9  7081.8594
404.8  7057.1719
404.7  7053.3281
404.6  7051.2188
404.5  7069.6563
404.4  7070.3906
404.3  7034.75
404.2  7015.0781
404.1  7059.9688
404  7084.8281
403.9  7080.7656
403.8  7085.0313
403.7  7086.4375
403.6  7096.1719
403.5  7097.6563
403.4  7087.625
403.3  7101.2031
403.2  7086.7188
403.1  7097.5
403  7109.5625
402.9  7119.2656
402.8  7100.4219
402.7  7111.3594
402.6  7116.5938
402.5  7119.9844
402.4  7113.5313
402.3  7113.9375
402.2  7127.5625
402.1  7137.5625
402  7123.125
401.9  7159.75
401.8  7138.7031
401.7  7151.3906
401.6  7154.0156
401.5  7152.8438
401.4  7187.2969
401.3  7178.9063
401.2  7171.9531
401.1  7182.6875
401  7192.7656
400.9  7196.8125
400.8  7178.75
400.7  7186.2813
400.6  7205.6719
400.5  7224.5313
400.4  7201.25
400.3  7210.7656
400.2  7181.4844
400.1  7194.2344
400  7201.9219
399.9  7219.7344
399.8  7218.0469
399.7  7214.9375
399.6  7194.2969
399.5  7215.3438
399.4  7213.9375
399.3  7200.2969
399.2  7230.9063
399.1  7217.1406
399  7226.9688
398.9  7214.9063
398.8  7203.3281
398.7  7196.7969
398.6  7193.375
398.5  7204.8125
398.4  7207.6875
398.3  7187.4688
398.2  7185.9531
398.1  7176.7188
398  7182.7813
397.9  7198.6875
397.8  7185.4375
397.7  7164.5
397.6  7184.0625
397.5  7167.3594
397.4  7159.5156
397.3  7164.6406
397.2  7161.6875
397.1  7178.8438
397  7191.5469
396.9  7163.75
396.8  7167.2969
396.7  7181.5
396.6  7114.6719
396.5  7164.7813
396.4  7164.9063
396.3  7146.1563
396.2  7172.8281
396.1  7171.2656
396  7182.2813
395.9  7165.0469
395.8  7178.9688
395.7  7161.4219
395.6  7176.4219
395.5  7194.4219
395.4  7162.0938
395.3  7174.1875
395.2  7156.5469
395.1  7167.7031
395  7201.4531

# Region:            Cl 2p
# Acquisition Date:  11/04/21 12:50:24 UTC
# Analysis Method:   XPS
# Analyzer:          Phoibos 100 R6
# Analyzer Lens:     LargeArea:1.5kV
# Analyzer Slit:     1:0.2x20\B:open
# Scan Mode:         FixedAnalyzerTransmission
# Curves/Scan:       1
# Values/Curve:      91
# Dwell Time:        0.8
# Excitation Energy: 1486.61
# Binding Energy:    204
# Pass Energy:       30
# Bias Voltage:      90
# Detector Voltage:  2600
# Eff. Workfunction: 4.309
# Source:            X-Ray Dummy
# Comment:           
#
# Cycle: 0
# Number of Scans: 10
#
# Cycle: 0, Curve: 0
# Acquisition Date: 11/04/21 12:50:24 UTC
#
# ColumnLabels: energy counts/s
#
204  3987.625
203.9  3990.625
203.8  4016.75
203.7  3984.375
203.6  4030.375
203.5  3995.5
203.4  4030.875
203.3  3996.25
203.2  4013.5
203.1  3976
203  4003
202.9  4025.125
202.8  3981.875
202.7  4056.875
202.6  4010.625
202.5  4020.5
202.4  4004.25
202.3  4003.75
202.2  3998.25
202.1  4035.5
202  4027.375
201.9  4048
201.8  4034
201.7  4062
201.6  4027.25
201.5  4040.25
201.4  4061
201.3  4062.5
201.2  4048.125
201.1  4017.5
201  4017.625
200.9  3998.125
200.8  4013.375
200.7  4057.75
200.6  4033.375
200.5  4055.875
200.4  4014.125
200.3  4056
200.2  4052
200.1  3998
200  4002.25
199.9  3996.75
199.8  4029.625
199.7  4048.25
199.6  4033.125
199.5  4035.375
199.4  4051.25
199.3  4008.5
199.2  4017.375
199.1  4055.75
199  4020.375
198.9  4085.875
198.8  4062.25
198.7  3993
198.6  4029.875
198.5  4033.125
198.4  4029.75
198.3  4073
198.2  4014.875
198.1  4060.5
198  4061.25
197.9  4014.125
197.8  4074.75
197.7  4021.5
197.6  4036.875
197.5  4045.5
197.4  4018.25
197.3  4072.625
197.2  4062.625
197.1  4019.25
197  4056.125
196.9  4052.5
196.8  4041.5
196.7  4054.25
196.6  4019.75
196.5  4049.125
196.4  4053.5
196.3  4054.5
196.2  4036.875
196.1  4006.25
196  4026.25
195.9  4045.375
195.8  4051.875
195.7  4043.125
195.6  4051.625
195.5  4078.375
195.4  4065.625
195.3  4022
195.2  4085.125
195.1  4047.625
195  4073.25

# Region:            Au 4f
# Acquisition Date:  11/04/21 11:03:36 UTC
# Analysis Method:   XPS
# Analyzer:          Phoibos 100 R6
# Analyzer Lens:     LargeArea:1.5kV
# Analyzer Slit:     1:0.2x20\B:open
# Scan Mode:         FixedAnalyzerTransmission
# Curves/Scan:       1
# Values/Curve:      151
# Dwell Time:        0.8
# Excitation Energy: 1486.61
# Binding Energy:    95
# Pass Energy:       30
# Bias Voltage:      90
# Detector Voltage:  2600
# Eff. Workfunction: 4.309
# Source:            X-Ray Dummy
# Comment:           
#
# Cycle: 0
# Number of Scans: 1
#
# Cycle: 0, Curve: 0
# Acquisition Date: 11/04/21 11:03:36 UTC
#
# ColumnLabels: energy counts/s
#
95  4545
94.9  4497.5
94.8  4297.5
94.7  4466.25
94.6  4462.5
94.5  4393.75
94.4  4435
94.3  4462.5
94.2  4448.75
94.1  4520
94  4386.25
93.9  4331.25
93.8  4461.25
93.7  4462.5
93.6  4480
93.5  4457.5
93.4  4551.25
93.3  4418.75
93.2  4570
93.1  4490
93  4397.5
92.9  4478.75
92.8  4405
92.7  4398.75
92.6  4553.75
92.5  4603.75
92.4  4582.5
92.3  4447.5
92.2  4713.75
92.1  4465
92  4623.75
91.9  4696.25
91.8  4615
91.7  4661.25
91.6  4720
91.5  4943.75
91.4  4821.25
91.3  4772.5
91.2  4978.75
91.1  4866.25
91  4882.5
90.9  4967.5
90.8  4968.75
90.7  5022.5
90.6  5133.75
90.5  5200
90.4  5133.75
90.3  5328.75
90.2  5308.75
90.1  5415
90  5486.25
89.9  5676.25
89.8  6041.25
89.7  6132.5
89.6  6427.5
89.5  6771.25
89.4  7400
89.3  7758.75
89.2  8307.5
89.1  8930
89  9848.75
88.9  10535
88.8  11705
88.7  12435
88.6  13200
88.5  14458.75
88.4  15622.5
88.3  16372.5
88.2  17057.5
88.1  17477.5
88  17885
87.9  18032.5
87.8  17986.25
87.7  17618.75
87.6  16702.5
87.5  15852.5
87.4  14848.75
87.3  13797.5
87.2  12588.75
87.1  11716.25
87  10610
86.9  9451.25
86.8  8618.75
86.7  7950
86.6  7500
86.5  7067.5
86.4  6690
86.3  6432.5
86.2  6602.5
86.1  6621.25
86  6837.5
85.9  7021.25
85.8  7345
85.7  7851.25
85.6  8497.5
85.5  8973.75
85.4  9807.5
85.3  10867.5
85.2  12032.5
85.1  12916.25
85  14515
84.9  15252.5
84.8  16937.5
84.7  17847.5
84.6  19020
84.5  19868.75
84.4  20635
84.3  20903.75
84.2  20735
84.1  20573.75
84  19833.75
83.9  18715
83.8  17562.5
83.7  16152.5
83.6  14585
83.5  12773.75
83.4  11567.5
83.3  10116.25
83.2  8865
83.1  7718.75
83  6798.75
82.9  5991.25
82.8  5373.75
82.7  5051.25
82.6  4555
82.5  4196.25
82.4  4046.25
82.3  4030
82.2  3670
82.1  3683.75
82  3567.5
81.9  3381.25
81.8  3341.25
81.7  3161.25
81.6  3095
81.5  3031.25
81.4  3000
81.3  3088.75
81.2  2955
81.1  2901.25
81  2775
80.9  2887.5
80.8  2851.25
80.7  2751.25
80.6  2823.75
80.5  2796.25
80.4  2696.25
80.3  2797.5
80.2  2735
80.1  2766.25
80  2753.75

# Region:            Ba 3d
# Acquisition Date:  11/04/21 12:51:30 UTC
# Analysis Method:   XPS
# Analyzer:          Phoibos 100 R6
# Analyzer Lens:     LargeArea:1.5kV
# Analyzer Slit:     1:0.2x20\B:open
# Scan Mode:         FixedAnalyzerTransmission
# Curves/Scan:       1
# Values/Curve:      81
# Dwell Time:        0.8
# Excitation Energy: 1486.61
# Binding Energy:    784
# Pass Energy:       30
# Bias Voltage:      90
# Detector Voltage:  2600
# Eff. Workfunction: 4.309
# Source:            X-Ray Dummy
# Comment:           
#
# Cycle: 0
# Number of Scans: 10
#
# Cycle: 0, Curve: 0
# Acquisition Date: 11/04/21 12:51:30 UTC
#
# ColumnLabels: energy counts/s
#
784  8632.25
783.9  8598.5
783.8  8588.375
783.7  8632.5
783.6  8630.125
783.5  8623.625
783.4  8619
783.3  8561.75
783.2  8630.5
783.1  8557.625
783  8643.625
782.9  8584.875
782.8  8616.25
782.7  8597.125
782.6  8603.25
782.5  8598
782.4  8606
782.3  8581.875
782.2  8616
782.1  8596.375
782  8581.875
781.9  8578.25
781.8  8606.125
781.7  8570.875
781.6  8643.125
781.5  8620.875
781.4  8567.5
781.3  8596.75
781.2  8666
781.1  8638
781  8620.25
780.9  8636.75
780.8  8559.875
780.7  8601.375
780.6  8635.875
780.5  8579.125
780.4  8599.875
780.3  8560.125
780.2  8529.25
780.1  8515.75
780  8618.25
779.9  8583.375
779.8  8578.25
779.7  8549.25
779.6  8593
779.5  8572.625
779.4  8569.75
779.3  8537.625
779.2  8576.75
779.1  8547.5
779  8567.875
778.9  8565.875
778.8  8569.875
778.7  8534.875
778.6  8568.75
778.5  8573.125
778.4  8604.875
778.3  8594.5
778.2  8566.625
778.1  8555.5
778  8590.25
777.9  8559.5
777.8  8568.875
777.7  8501.5
777.6  8507
777.5  8510.625
777.4  8539.125
777.3  8536.125
777.2  8498
777.1  8470.625
777  8558.625
776.9  8607.875
776.8  8530.375
776.7  8579
776.6  8546.875
776.5  8534
776.4  8562.75
776.3  8531
776.2  8541.5
776.1  8558.5
776  8499.875

# Region:            overview
# Acquisition Date:  11/04/21 11:09:11 UTC
# Analysis Method:   XPS
# Analyzer:          Phoibos 100 R6
# Analyzer Lens:     MediumArea:1.5kV
# Analyzer Slit:     1:0.2x20\B:open
# Scan Mode:         FixedAnalyzerTransmission
# Curves/Scan:       1
# Values/Curve:      1205
# Dwell Time:        0.2
# Excitation Energy: 1486.61
# Binding Energy:    1200
# Pass Energy:       50
# Bias Voltage:      90
# Detector Voltage:  2600
# Eff. Workfunction: 4.309
# Source:            X-Ray Dummy
# Comment:           
#
# Cycle: 0
# Number of Scans: 1
#
# Cycle: 0, Curve: 0
# Acquisition Date: 11/04/21 11:09:11 UTC
#
# ColumnLabels: energy counts/s
#
1200  12205
1199  12565
1198  12305
1197  11795
1196  12020
1195  11860
1194  11885
1193  11365
1192  11520
1191  11900
1190  11620
1189  11630
1188  11490
1187  11880
1186  11220
1185  11350
1184  11140
1183  11345
1182  11395
1181  11365
1180  11015
1179  11225
1178  10940
1177  10945
1176  10840
1175  10725
1174  10985
1173  10920
1172  11085
1171  10875
1170  10605
1169  11070
1168  10955
1167  10520
1166  10780
1165  10760
1164  10760
1163  10610
1162  10410
1161  10590
1160  10275
1159  10160
1158  10925
1157  10450
1156  10745
1155  10405
1154  10020
1153  10670
1152  10625
1151  10150
1150  10445
1149  10200
1148  9765
1147  10310
1146  10170
1145  10120
1144  10010
1143  10170
1142  10290
1141  10240
1140  10040
1139  10080
1138  9625
1137  9785
1136  9860
1135  9665
1134  9500
1133  10200
1132  9525
1131  9795
1130  9565
1129  9680
1128  9935
1127  10010
1126  9705
1125  9635
1124  9420
1123  9570
1122  9305
1121  9295
1120  9330
1119  9420
1118  9560
1117  9490
1116  9445
1115  9140
1114  9385
1113  9220
1112  9355
1111  9120
1110  9360
1109  9670
1108  9290
1107  9330
1106  9015
1105  9030
1104  8845
1103  9070
1102  9395
1101  9105
1100  9370
1099  8895
1098  8895
1097  8965
1096  8755
1095  9280
1094  8475
1093  8495
1092  8870
1091  8630
1090  9100
1089  8835
1088  8440
1087  8985
1086  8800
1085  8770
1084  8485
1083  8620
1082  8200
1081  8640
1080  8250
1079  8600
1078  8435
1077  8545
1076  7855
1075  8895
1074  8420
1073  7875
1072  8520
1071  8680
1070  8290
1069  8255
1068  8265
1067  7975
1066  8165
1065  8375
1064  8300
1063  8135
1062  8385
1061  7875
1060  8090
1059  8290
1058  8270
1057  8180
1056  8285
1055  8350
1054  8235
1053  7830
1052  8025
1051  8055
1050  8030
1049  8040
1048  8050
1047  8115
1046  7740
1045  7965
1044  7900
1043  8210
1042  8025
1041  7960
1040  7960
1039  7865
1038  7920
1037  8100
1036  7315
1035  7865
1034  8160
1033  7670
1032  8130
1031  7655
1030  7785
1029  7425
1028  7590
1027  7345
1026  7520
1025  7470
1024  7715
1023  7495
1022  7650
1021  7510
1020  7530
1019  7520
1018  7675
1017  7570
1016  7545
1015  7375
1014  7280
1013  7375
1012  7260
1011  7410
1010  7540
1009  7320
1008  7300
1007  7265
1006  6985
1005  7620
1004  7420
1003  7190
1002  7675
1001  7310
1000  7475
999  7565
998  7660
997  7590
996  7385
995  7310
994  7260
993  7300
992  7570
991  7380
990  7530
989  7300
988  7275
987  7150
986  7210
985  6985
984  7015
983  7210
982  7410
981  7175
980  7105
979  7535
978  7340
977  7455
976  7075
975  7695
974  7260
973  7030
972  6830
971  7335
970  7575
969  7330
968  7205
967  7195
966  7025
965  6735
964  6965
963  7190
962  7000
961  7035
960  7230
959  7430
958  7295
957  6855
956  7135
955  7380
954  7375
953  7245
952  6990
951  6830
950  7235
949  7215
948  7125
947  6960
946  6785
945  6900
944  7050
943  6800
942  7355
941  7160
940  7290
939  7330
938  7140
937  7325
936  7115
935  7070
934  6830
933  7075
932  7190
931  6990
930  7140
929  7040
928  7320
927  7040
926  7190
925  7215
924  7370
923  7065
922  6635
921  7085
920  7325
919  6980
918  6865
917  7125
916  7130
915  7085
914  6800
913  6860
912  6925
911  6640
910  6685
909  7060
908  7260
907  7050
906  6910
905  7120
904  6715
903  6955
902  7290
901  6955
900  6645
899  6590
898  7370
897  7105
896  6750
895  6675
894  6900
893  7130
892  6920
891  6830
890  6990
889  6955
888  6950
887  6855
886  6765
885  6785
884  7045
883  6680
882  6950
881  6770
880  6865
879  6970
878  6750
877  6820
876  6870
875  6755
874  6850
873  6930
872  6955
871  6855
870  6760
869  6850
868  6645
867  7080
866  7055
865  6875
864  6865
863  6885
862  7015
861  6680
860  7015
859  7350
858  6775
857  6900
856  7090
855  7265
854  6775
853  7065
852  6905
851  6620
850  6795
849  6900
848  6955
847  6775
846  6980
845  7120
844  6945
843  6940
842  6855
841  7195
840  7140
839  7025
838  7000
837  6790
836  6745
835  6920
834  7020
833  6885
832  7200
831  7140
830  6865
829  7060
828  6540
827  7100
826  7075
825  6830
824  6755
823  7025
822  6920
821  6840
820  7180
819  7090
818  7230
817  6855
816  6645
815  6940
814  7165
813  6835
812  6805
811  7205
810  7185
809  7175
808  7390
807  7115
806  7245
805  7290
804  7505
803  7345
802  7155
801  6950
800  7430
799  7105
798  7000
797  6970
796  7220
795  6985
794  7235
793  7185
792  7145
791  7185
790  7015
789  6940
788  7260
787  7230
786  7155
785  7270
784  7040
783  6805
782  7350
781  7450
780  7115
779  7240
778  7255
777  7485
776  7275
775  6495
774  7355
773  7015
772  6960
771  7270
770  6980
769  7135
768  7545
767  7130
766  7160
765  7310
764  7690
763  7760
762  7300
761  7790
760  7695
759  7440
758  7535
757  7605
756  7540
755  7575
754  7120
753  7295
752  7255
751  7080
750  7275
749  7515
748  7265
747  7125
746  6780
745  7085
744  6775
743  7290
742  6880
741  7025
740  7550
739  7150
738  7345
737  6970
736  7070
735  7040
734  7410
733  7145
732  7545
731  7165
730  7030
729  6880
728  7440
727  7305
726  6980
725  7030
724  6580
723  7305
722  7005
721  7185
720  7115
719  7560
718  7320
717  7325
716  7205
715  7210
714  7450
713  7250
712  6655
711  7315
710  7410
709  7310
708  7400
707  7515
706  7555
705  7430
704  7420
703  7290
702  7485
701  6975
700  7320
699  7645
698  7375
697  7095
696  7155
695  7270
694  7315
693  7310
692  7010
691  7765
690  7640
689  7660
688  7280
687  7590
686  7285
685  7475
684  7530
683  7795
682  7300
681  7350
680  7375
679  7945
678  7510
677  7380
676  7440
675  7405
674  7470
673  7665
672  7555
671  7750
670  7705
669  7555
668  7905
667  7585
666  7445
665  7840
664  7535
663  7640
662  7600
661  7515
660  7505
659  7340
658  7525
657  7795
656  7260
655  7735
654  7455
653  7555
652  7690
651  7485
650  7720
649  8145
648  8605
647  7815
646  7825
645  8115
644  8350
643  8720
642  8055
641  8300
640  7835
639  7970
638  7950
637  8135
636  7960
635  7270
634  7990
633  7595
632  8200
631  7745
630  7385
629  7685
628  7715
627  7855
626  7645
625  7565
624  7615
623  7960
622  7575
621  7885
620  7640
619  7750
618  7715
617  7785
616  7820
615  7875
614  7515
613  7770
612  7650
611  7965
610  7825
609  8010
608  8020
607  7855
606  7615
605  8115
604  8235
603  7840
602  7810
601  7650
600  7840
599  7690
598  7900
597  8305
596  7895
595  7805
594  8175
593  8000
592  8050
591  8130
590  7950
589  8075
588  8080
587  8370
586  8050
585  8360
584  8060
583  7895
582  8405
581  8245
580  8100
579  7985
578  8290
577  8250
576  8490
575  8395
574  8400
573  8185
572  8280
571  8520
570  8140
569  8355
568  8165
567  8055
566  8625
565  8525
564  8310
563  8175
562  8320
561  8350
560  8350
559  8455
558  8665
557  8455
556  8475
555  8590
554  8765
553  8525
552  8510
551  8885
550  9555
549  9770
548  10110
547  11115
546  10770
545  10230
544  10185
543  9370
542  8865
541  8345
540  8600
539  7990
538  8205
537  8045
536  8120
535  8080
534  8045
533  8405
532  7890
531  7995
530  7740
529  7705
528  7650
527  7575
526  7370
525  7565
524  7580
523  7870
522  7340
521  7705
520  7425
519  7240
518  7415
517  7530
516  7425
515  7295
514  7625
513  7290
512  7360
511  7435
510  7480
509  7420
508  7840
507  7700
506  7675
505  7320
504  7990
503  7175
502  7080
501  7530
500  7580
499  7750
498  7690
497  7590
496  7495
495  8200
494  7880
493  7585
492  7470
491  7620
490  7575
489  8155
488  7845
487  7645
486  7580
485  7955
484  7885
483  7595
482  7965
481  7585
480  8080
479  8300
478  7910
477  8140
476  8000
475  7825
474  8545
473  8130
472  8120
471  7940
470  8030
469  8225
468  8110
467  8085
466  8030
465  8250
464  8065
463  8140
462  8100
461  8330
460  8010
459  8330
458  8095
457  7415
456  8050
455  8215
454  8150
453  8115
452  8435
451  8215
450  8295
449  8255
448  8475
447  8395
446  8315
445  8595
444  8385
443  8640
442  8390
441  7785
440  8255
439  8505
438  8560
437  8420
436  8350
435  8550
434  8355
433  8995
432  8210
431  8490
430  8355
429  8670
428  8900
427  8685
426  8745
425  8810
424  8865
423  8605
422  8440
421  8700
420  8580
419  9135
418  8725
417  8540
416  8790
415  8980
414  8835
413  8815
412  9370
411  9245
410  8985
409  9340
408  9205
407  9055
406  9135
405  8815
404  9475
403  9590
402  9365
401  9500
400  9380
399  9705
398  9500
397  9410
396  9530
395  9245
394  9330
393  9620
392  9425
391  9460
390  9500
389  9365
388  9890
387  9800
386  9705
385  9600
384  9575
383  9730
382  9690
381  10115
380  9920
379  10035
378  9575
377  10005
376  10050
375  10440
374  9875
373  9665
372  9710
371  10090
370  10065
369  10025
368  10050
367  10355
366  10365
365  10385
364  10145
363  10205
362  10290
361  10520
360  10735
359  10900
358  11465
357  11710
356  12570
355  13685
354  15030
353  14685
352  13925
351  12420
350  11125
349  10455
348  9610
347  9485
346  9790
345  9570
344  9750
343  9615
342  9680
341  9965
340  9640
339  11010
338  12155
337  14310
336  16565
335  16220
334  15265
333  12520
332  9665
331  8780
330  8210
329  7870
328  7355
327  7610
326  7160
325  7280
324  6930
323  6640
322  6640
321  6325
320  6160
319  6245
318  5910
317  5715
316  5785
315  6100
314  5975
313  5725
312  5320
311  5460
310  6115
309  5915
308  5565
307  5535
306  5750
305  5495
304  5380
303  5740
302  5740
301  5490
300  5390
299  5150
298  5775
297  5785
296  5235
295  5825
294  5660
293  5455
292  5530
291  5530
290  5475
289  5780
288  5720
287  6320
286  6315
285  6700
284  6320
283  5880
282  5510
281  5755
280  5465
279  5510
278  5275
277  5480
276  5770
275  5535
274  5715
273  5570
272  5720
271  5560
270  5305
269  5630
268  5760
267  5615
266  5650
265  5625
264  5555
263  5595
262  5805
261  5625
260  5985
259  5345
258  5470
257  5460
256  5585
255  5770
254  5375
253  5500
252  5405
251  5620
250  5390
249  5605
248  5570
247  5790
246  5610
245  5670
244  5595
243  5245
242  5490
241  5690
240  5590
239  5685
238  5670
237  5585
236  5305
235  5670
234  5645
233  6035
232  5700
231  5595
230  5930
229  5920
228  5700
227  5575
226  5630
225  5370
224  5870
223  5670
222  5660
221  5875
220  5900
219  5795
218  5750
217  5485
216  5870
215  5975
214  5870
213  5560
212  6030
211  5860
210  6045
209  5825
208  5935
207  5730
206  5775
205  6305
204  5990
203  5950
202  5915
201  5560
200  6035
199  5785
198  5910
197  5830
196  6055
195  6245
194  6280
193  5770
192  5995
191  6220
190  6060
189  6150
188  5860
187  6190
186  6375
185  5920
184  6660
183  6180
182  6570
181  6125
180  5790
179  5875
178  6080
177  5975
176  6130
175  6180
174  6735
173  6350
172  6730
171  6435
170  6130
169  6590
168  6245
167  6105
166  6115
165  6025
164  6205
163  6055
162  6245
161  6190
160  6505
159  6440
158  6375
157  6180
156  6405
155  6675
154  6755
153  7015
152  6290
151  6610
150  7020
149  6680
148  6555
147  6415
146  6565
145  6405
144  6790
143  6470
142  6735
141  7040
140  6350
139  6570
138  6790
137  6780
136  6825
135  6825
134  6710
133  6960
132  7130
131  6895
130  6955
129  6940
128  7070
127  7335
126  7000
125  7215
124  7260
123  7415
122  7075
121  7570
120  7530
119  7350
118  7485
117  7650
116  7820
115  7545
114  7340
113  7395
112  7755
111  7695
110  7885
109  7500
108  7640
107  7825
106  7560
105  7490
104  7235
103  7145
102  7485
101  7195
100  7275
99  7050
98  6890
97  6960
96  6530
95  6575
94  6885
93  6870
92  7165
91  7685
90  8785
89  15150
88  23805
87  18380
86  12145
85  22060
84  26740
83  13555
82  6110
81  4570
80  4430
79  4985
78  5220
77  4785
76  5080
75  5280
74  5010
73  4430
72  4145
71  3610
70  3225
69  3285
68  2845
67  3125
66  3115
65  2930
64  3215
63  3200
62  3280
61  3375
60  3520
59  3315
58  3735
57  3760
56  3555
55  3380
54  3000
53  2910
52  3065
51  2955
50  2835
49  2745
48  2960
47  2940
46  2870
45  2630
44  2545
43  2625
42  2845
41  2745
40  2745
39  2645
38  2540
37  2530
36  2765
35  2650
34  2690
33  2610
32  2795
31  2630
30  2810
29  2815
28  2675
27  2570
26  2995
25  2545
24  2615
23  2540
22  2715
21  2625
20  2700
19  2710
18  2815
17  2685
16  2630
15  2815
14  2420
13  2665
12  2635
11  2460
10  2485
9  2635
8  3295
7  4250
6  4365
5  4495
4  4475
3  4170
2  3455
1  2580
-2.2737368e-013  2060
-1  2295
-2  2010
-3  2110
-4  2170

